Time,Value,Aggregate
15:14:52.802000,-0.0701904296875,172.61587639850828
15:14:52.805000,-0.101470947265625,172.61587639850828
15:14:52.806000,-0.1453399658203125,172.61587639850828
15:14:52.807000,-0.1300811767578125,172.61587639850828
15:14:52.808000,-0.0614166259765625,172.61587639850828
15:14:52.808000,-0.014495849609375,172.61587639850828
15:14:52.809000,-0.046539306640625,172.61587639850828
15:14:52.809000,-0.0980377197265625,172.61587639850828
15:14:52.810000,-0.0942230224609375,172.61587639850828
15:14:52.811000,-0.037384033203125,172.61587639850828
15:14:52.811000,0.020599365234375,172.61587639850828
15:14:52.812000,0.04119873046875,172.61587639850828
15:14:52.813000,0.0499725341796875,172.61587639850828
15:14:52.814000,0.0579833984375,172.61587639850828
15:14:52.815000,0.0274658203125,172.61587639850828
15:14:52.815000,-0.0499725341796875,172.61587639850828
15:14:52.877000,-0.1369476318359375,172.61587639850828
15:14:52.878000,-0.177001953125,172.61587639850828
15:14:52.879000,-0.1514434814453125,172.61587639850828
15:14:52.880000,-0.1068115234375,172.61587639850828
15:14:52.881000,-0.080108642578125,172.61587639850828
15:14:52.882000,-0.0659942626953125,172.61587639850828
15:14:52.882000,-0.0423431396484375,172.61587639850828
15:14:52.883000,-0.0537872314453125,172.61587639850828
15:14:52.884000,-0.13427734375,172.61587639850828
15:14:52.885000,-0.22125244140625,172.61587639850828
15:14:52.886000,-0.2288818359375,172.61587639850828
15:14:52.886000,-0.1575469970703125,172.61587639850828
15:14:52.887000,-0.0957489013671875,172.61587639850828
15:14:52.888000,-0.0919342041015625,172.61587639850828
15:14:52.889000,-0.1018524169921875,172.61587639850828
15:14:52.889000,-0.101470947265625,172.61587639850828
15:14:52.960000,-0.0911712646484375,172.61587639850828
15:14:52.961000,-0.06256103515625,172.61587639850828
15:14:52.962000,-0.00152587890625,172.61587639850828
15:14:52.962000,0.0606536865234375,172.61587639850828
15:14:52.963000,0.07476806640625,172.61587639850828
15:14:52.964000,0.0431060791015625,172.61587639850828
15:14:52.964000,-0.0030517578125,172.61587639850828
15:14:52.965000,-0.041961669921875,172.61587639850828
15:14:52.966000,-0.07171630859375,172.61587639850828
15:14:52.966000,-0.083160400390625,172.61587639850828
15:14:52.967000,-0.0823974609375,172.61587639850828
15:14:52.969000,-0.0858306884765625,172.61587639850828
15:14:52.969000,-0.09307861328125,172.61587639850828
15:14:52.970000,-0.1007080078125,172.61587639850828
15:14:52.971000,-0.098419189453125,172.61587639850828
15:14:52.972000,-0.0926971435546875,172.61587639850828
15:14:53.078000,-0.0873565673828125,172.61587639850828
15:14:53.079000,-0.0514984130859375,172.61587639850828
15:14:53.080000,-0.01373291015625,172.61587639850828
15:14:53.082000,0.0469207763671875,172.61587639850828
15:14:53.083000,0.258636474609375,172.61587639850828
15:14:53.085000,0.617218017578125,172.61587639850828
15:14:53.086000,0.8693695068359375,172.61587639850828
15:14:53.088000,0.7610321044921875,172.61587639850828
15:14:53.089000,0.35858154296875,172.61587639850828
15:14:53.091000,-0.0347137451171875,172.61587639850828
15:14:53.092000,-0.22430419921875,172.61587639850828
15:14:53.093000,-0.2704620361328125,172.61587639850828
15:14:53.094000,-0.30059814453125,172.61587639850828
15:14:53.096000,-0.3246307373046875,172.61587639850828
15:14:53.096000,-0.3265380859375,172.61587639850828
15:14:53.097000,-0.3421783447265625,172.61587639850828
15:14:53.214000,-0.3513336181640625,172.61587639850828
15:14:53.215000,-0.323486328125,172.61587639850828
15:14:53.215000,-0.27923583984375,172.61587639850828
15:14:53.216000,-0.266265869140625,172.61587639850828
15:14:53.217000,-0.3086090087890625,172.61587639850828
15:14:53.218000,-0.37689208984375,172.61587639850828
15:14:53.218000,-0.4154205322265625,172.61587639850828
15:14:53.220000,-0.38604736328125,172.61587639850828
15:14:53.221000,-0.302886962890625,172.61587639850828
15:14:53.222000,-0.2288818359375,172.61587639850828
15:14:53.223000,-0.1922607421875,172.61587639850828
15:14:53.224000,-0.1720428466796875,172.61587639850828
15:14:53.225000,-0.15869140625,172.61587639850828
15:14:53.226000,-0.164031982421875,172.61587639850828
15:14:53.227000,-0.18768310546875,172.61587639850828
15:14:53.228000,-0.193023681640625,172.61587639850828
15:14:53.338000,-0.14495849609375,172.61587639850825
15:14:53.339000,-0.0621795654296875,172.61587639850825
15:14:53.340000,0.0141143798828125,172.61587639850825
15:14:53.341000,0.072479248046875,172.61587639850825
15:14:53.342000,0.0957489013671875,172.61587639850825
15:14:53.343000,0.074005126953125,172.61587639850825
15:14:53.343000,0.0553131103515625,172.61587639850825
15:14:53.344000,0.0946044921875,172.61587639850825
15:14:53.345000,0.15716552734375,172.61587639850825
15:14:53.346000,0.15106201171875,172.61587639850825
15:14:53.347000,0.060272216796875,172.61587639850825
15:14:53.348000,-0.0286102294921875,172.61587639850825
15:14:53.349000,-0.0492095947265625,172.61587639850825
15:14:53.349000,-0.0339508056640625,172.61587639850825
15:14:53.351000,-0.04730224609375,172.61587639850825
15:14:53.352000,-0.0865936279296875,172.61587639850825
15:14:53.455000,-0.1312255859375,163.47124117053482
15:14:53.456000,-0.1796722412109375,163.47124117053482
15:14:53.457000,-0.2147674560546875,163.47124117053482
15:14:53.458000,-0.222015380859375,163.47124117053482
15:14:53.459000,-0.1953125,163.47124117053482
15:14:53.459000,-0.1434326171875,163.47124117053482
15:14:53.460000,-0.0743865966796875,163.47124117053482
15:14:53.461000,-0.0011444091796875,163.47124117053482
15:14:53.462000,0.0484466552734375,163.47124117053482
15:14:53.463000,0.05035400390625,163.47124117053482
15:14:53.464000,0.0293731689453125,163.47124117053482
15:14:53.465000,0.02288818359375,163.47124117053482
15:14:53.466000,0.0308990478515625,163.47124117053482
15:14:53.467000,0.0286102294921875,163.47124117053482
15:14:53.468000,0.0225067138671875,163.47124117053482
15:14:53.468000,0.01678466796875,163.47124117053482
15:14:53.588000,-0.0030517578125,163.47124117053482
15:14:53.589000,-0.0518798828125,163.47124117053482
15:14:53.590000,-0.1110076904296875,163.47124117053482
15:14:53.591000,-0.1369476318359375,163.47124117053482
15:14:53.592000,-0.1155853271484375,163.47124117053482
15:14:53.592000,-0.070953369140625,163.47124117053482
15:14:53.593000,-0.0324249267578125,163.47124117053482
15:14:53.594000,-0.030517578125,163.47124117053482
15:14:53.594000,-0.0743865966796875,163.47124117053482
15:14:53.595000,-0.1392364501953125,163.47124117053482
15:14:53.596000,-0.194549560546875,163.47124117053482
15:14:53.597000,-0.208282470703125,163.47124117053482
15:14:53.598000,-0.1552581787109375,163.47124117053482
15:14:53.599000,-0.0885009765625,163.47124117053482
15:14:53.599000,-0.0728607177734375,163.47124117053482
15:14:53.600000,-0.0965118408203125,163.47124117053482
15:14:53.712000,-0.12054443359375,163.47124117053482
15:14:53.712000,-0.13885498046875,163.47124117053482
15:14:53.713000,-0.1636505126953125,163.47124117053482
15:14:53.714000,-0.2071380615234375,163.47124117053482
15:14:53.714000,-0.220489501953125,163.47124117053482
15:14:53.715000,-0.164031982421875,163.47124117053482
15:14:53.715000,-0.112152099609375,163.47124117053482
15:14:53.716000,-0.1220703125,163.47124117053482
15:14:53.717000,-0.1255035400390625,163.47124117053482
15:14:53.717000,-0.06866455078125,163.47124117053482
15:14:53.718000,0.012969970703125,163.47124117053482
15:14:53.718000,0.040435791015625,163.47124117053482
15:14:53.719000,0.0293731689453125,163.47124117053482
15:14:53.719000,0.16937255859375,163.47124117053482
15:14:53.720000,0.51727294921875,163.47124117053482
15:14:53.721000,0.8304595947265625,163.47124117053482
15:14:53.828000,0.82550048828125,172.61587639850828
15:14:53.829000,0.4940032958984375,172.61587639850828
15:14:53.829000,0.091552734375,172.61587639850828
15:14:53.830000,-0.1354217529296875,172.61587639850828
15:14:53.831000,-0.1552581787109375,172.61587639850828
15:14:53.831000,-0.12054443359375,172.61587639850828
15:14:53.832000,-0.1201629638671875,172.61587639850828
15:14:53.833000,-0.1422882080078125,172.61587639850828
15:14:53.834000,-0.1895904541015625,172.61587639850828
15:14:53.835000,-0.2223968505859375,172.61587639850828
15:14:53.835000,-0.2254486083984375,172.61587639850828
15:14:53.836000,-0.22430419921875,172.61587639850828
15:14:53.837000,-0.20904541015625,172.61587639850828
15:14:53.837000,-0.1834869384765625,172.61587639850828
15:14:53.838000,-0.16326904296875,172.61587639850828
15:14:53.838000,-0.1373291015625,172.61587639850828
15:14:53.963000,-0.0896453857421875,163.4712411705348
15:14:53.964000,-0.0484466552734375,163.4712411705348
15:14:53.964000,-0.04425048828125,163.4712411705348
15:14:53.965000,-0.0782012939453125,163.4712411705348
15:14:53.987000,-0.1247406005859375,163.4712411705348
15:14:53.988000,-0.164031982421875,163.4712411705348
15:14:53.989000,-0.2086639404296875,163.4712411705348
15:14:53.989000,-0.2498626708984375,163.4712411705348
15:14:53.990000,-0.2468109130859375,163.4712411705348
15:14:53.990000,-0.2044677734375,163.4712411705348
15:14:53.991000,-0.16021728515625,163.4712411705348
15:14:53.991000,-0.1262664794921875,163.4712411705348
15:14:53.992000,-0.113677978515625,163.4712411705348
15:14:53.993000,-0.110626220703125,163.4712411705348
15:14:53.994000,-0.09765625,163.4712411705348
15:14:53.995000,-0.098419189453125,163.4712411705348
15:14:54.083000,-0.1308441162109375,163.4712411705348
15:14:54.084000,-0.177001953125,163.4712411705348
15:14:54.085000,-0.20294189453125,163.4712411705348
15:14:54.086000,-0.1678466796875,163.4712411705348
15:14:54.086000,-0.090789794921875,163.4712411705348
15:14:54.087000,-0.041961669921875,163.4712411705348
15:14:54.088000,-0.034332275390625,163.4712411705348
15:14:54.088000,-0.0423431396484375,163.4712411705348
15:14:54.089000,-0.0820159912109375,163.4712411705348
15:14:54.090000,-0.151824951171875,163.4712411705348
15:14:54.091000,-0.1983642578125,163.4712411705348
15:14:54.091000,-0.1926422119140625,163.4712411705348
15:14:54.092000,-0.164794921875,163.4712411705348
15:14:54.092000,-0.147247314453125,163.4712411705348
15:14:54.093000,-0.1312255859375,163.4712411705348
15:14:54.093000,-0.0850677490234375,163.4712411705348
15:14:54.205000,-0.0385284423828125,163.4712411705348
15:14:54.206000,-0.028228759765625,163.4712411705348
15:14:54.206000,-0.0244140625,163.4712411705348
15:14:54.207000,-0.0064849853515625,163.4712411705348
15:14:54.208000,0.00152587890625,163.4712411705348
15:14:54.209000,-0.03204345703125,163.4712411705348
15:14:54.210000,-0.1071929931640625,163.4712411705348
15:14:54.211000,-0.17242431640625,163.4712411705348
15:14:54.212000,-0.1781463623046875,163.4712411705348
15:14:54.213000,-0.12664794921875,163.4712411705348
15:14:54.214000,-0.0690460205078125,163.4712411705348
15:14:54.214000,-0.0457763671875,163.4712411705348
15:14:54.215000,-0.0762939453125,163.4712411705348
15:14:54.216000,-0.107574462890625,163.4712411705348
15:14:54.216000,-0.0904083251953125,163.4712411705348
15:14:54.217000,-0.0606536865234375,163.4712411705348
15:14:54.338000,-0.0457763671875,163.4712411705348
15:14:54.339000,-0.034332275390625,163.4712411705348
15:14:54.340000,-0.046539306640625,163.4712411705348
15:14:54.341000,-0.0911712646484375,163.4712411705348
15:14:54.342000,-0.1323699951171875,163.4712411705348
15:14:54.342000,-0.11749267578125,163.4712411705348
15:14:54.343000,-0.063323974609375,163.4712411705348
15:14:54.343000,-0.0354766845703125,163.4712411705348
15:14:54.344000,-0.0492095947265625,163.4712411705348
15:14:54.345000,-0.0667572021484375,163.4712411705348
15:14:54.345000,-0.0591278076171875,163.4712411705348
15:14:54.346000,-0.0827789306640625,163.4712411705348
15:14:54.346000,-0.162506103515625,163.4712411705348
15:14:54.347000,-0.21514892578125,163.4712411705348
15:14:54.347000,-0.1773834228515625,163.4712411705348
15:14:54.348000,-0.0885009765625,163.4712411705348
15:14:54.458000,-0.028228759765625,163.4712411705348
15:14:54.459000,-0.03814697265625,163.4712411705348
15:14:54.460000,-0.0957489013671875,163.4712411705348
15:14:54.460000,-0.1232147216796875,163.4712411705348
15:14:54.461000,-0.0949859619140625,163.4712411705348
15:14:54.462000,-0.077056884765625,163.4712411705348
15:14:54.463000,-0.0720977783203125,163.4712411705348
15:14:54.463000,-0.0675201416015625,163.4712411705348
15:14:54.464000,-0.0064849853515625,163.4712411705348
15:14:54.465000,0.2685546875,163.4712411705348
15:14:54.465000,0.7167816162109375,163.4712411705348
15:14:54.466000,0.9815216064453125,163.4712411705348
15:14:54.466000,0.7816314697265625,163.4712411705348
15:14:54.467000,0.262451171875,163.4712411705348
15:14:54.468000,-0.170135498046875,163.4712411705348
15:14:54.468000,-0.2666473388671875,163.4712411705348
15:14:54.582000,-0.1567840576171875,166.06868272680677
15:14:54.583000,-0.1007080078125,166.06868272680677
15:14:54.584000,-0.115966796875,166.06868272680677
15:14:54.585000,-0.12054443359375,166.06868272680677
15:14:54.586000,-0.12969970703125,166.06868272680677
15:14:54.587000,-0.16326904296875,166.06868272680677
15:14:54.587000,-0.2048492431640625,166.06868272680677
15:14:54.588000,-0.2353668212890625,166.06868272680677
15:14:54.588000,-0.22735595703125,166.06868272680677
15:14:54.589000,-0.18310546875,166.06868272680677
15:14:54.589000,-0.1476287841796875,166.06868272680677
15:14:54.590000,-0.141143798828125,166.06868272680677
15:14:54.591000,-0.1247406005859375,166.06868272680677
15:14:54.591000,-0.1010894775390625,166.06868272680677
15:14:54.592000,-0.0675201416015625,166.06868272680677
15:14:54.592000,-0.00457763671875,166.06868272680677
15:14:54.713000,0.0797271728515625,166.06868272680677
15:14:54.714000,0.1384735107421875,166.06868272680677
15:14:54.715000,0.140380859375,166.06868272680677
15:14:54.715000,0.10528564453125,166.06868272680677
15:14:54.716000,0.0946044921875,166.06868272680677
15:14:54.717000,0.1384735107421875,166.06868272680677
15:14:54.717000,0.21209716796875,166.06868272680677
15:14:54.718000,0.2532958984375,166.06868272680677
15:14:54.719000,0.231170654296875,166.06868272680677
15:14:54.719000,0.1617431640625,166.06868272680677
15:14:54.720000,0.0896453857421875,166.06868272680677
15:14:54.721000,0.063323974609375,166.06868272680677
15:14:54.721000,0.0614166259765625,166.06868272680677
15:14:54.722000,0.0331878662109375,166.06868272680677
15:14:54.722000,-0.0316619873046875,166.06868272680677
15:14:54.723000,-0.1068115234375,166.06868272680677
15:14:54.832000,-0.152587890625,166.06868272680674
15:14:54.833000,-0.1476287841796875,166.06868272680674
15:14:54.834000,-0.115966796875,166.06868272680674
15:14:54.834000,-0.095367431640625,166.06868272680674
15:14:54.835000,-0.090789794921875,166.06868272680674
15:14:54.836000,-0.061798095703125,166.06868272680674
15:14:54.836000,-0.0179290771484375,166.06868272680674
15:14:54.837000,-0.0026702880859375,166.06868272680674
15:14:54.837000,-0.01373291015625,166.06868272680674
15:14:54.838000,0.01983642578125,166.06868272680674
15:14:54.839000,0.1186370849609375,166.06868272680674
15:14:54.839000,0.19683837890625,166.06868272680674
15:14:54.840000,0.1842498779296875,166.06868272680674
15:14:54.841000,0.1262664794921875,166.06868272680674
15:14:54.842000,0.0949859619140625,166.06868272680674
15:14:54.842000,0.093841552734375,166.06868272680674
15:14:54.968000,0.08697509765625,166.06868272680674
15:14:54.969000,0.0736236572265625,166.06868272680674
15:14:54.971000,0.0873565673828125,166.06868272680674
15:14:54.973000,0.1171112060546875,166.06868272680674
15:14:54.974000,0.1148223876953125,166.06868272680674
15:14:54.975000,0.0644683837890625,166.06868272680674
15:14:54.976000,0.0141143798828125,166.06868272680674
15:14:54.977000,0.0164031982421875,166.06868272680674
15:14:54.978000,0.057220458984375,166.06868272680674
15:14:54.978000,0.0732421875,166.06868272680674
15:14:54.980000,0.0377655029296875,166.06868272680674
15:14:54.980000,-0.006866455078125,166.06868272680674
15:14:54.981000,-0.01983642578125,166.06868272680674
15:14:54.982000,-0.0316619873046875,166.06868272680674
15:14:54.983000,-0.061798095703125,166.06868272680674
15:14:54.983000,-0.0789642333984375,166.06868272680674
15:14:55.088000,-0.0583648681640625,166.06868272680674
15:14:55.089000,-0.0003814697265625,166.06868272680674
15:14:55.090000,0.05035400390625,166.06868272680674
15:14:55.091000,0.0408172607421875,166.06868272680674
15:14:55.092000,-0.005340576171875,166.06868272680674
15:14:55.092000,-0.0423431396484375,166.06868272680674
15:14:55.093000,-0.0370025634765625,166.06868272680674
15:14:55.094000,0.0030517578125,166.06868272680674
15:14:55.094000,0.030517578125,166.06868272680674
15:14:55.095000,0.02288818359375,166.06868272680674
15:14:55.096000,-0.005340576171875,166.06868272680674
15:14:55.096000,-0.0164031982421875,166.06868272680674
15:14:55.097000,0.009918212890625,166.06868272680674
15:14:55.098000,0.0637054443359375,166.06868272680674
15:14:55.098000,0.1018524169921875,166.06868272680674
15:14:55.099000,0.067138671875,166.06868272680674
15:14:55.209000,-0.0102996826171875,166.06868272680674
15:14:55.210000,-0.037384033203125,166.06868272680674
15:14:55.210000,0.01373291015625,166.06868272680674
15:14:55.211000,0.0766754150390625,166.06868272680674
15:14:55.212000,0.048828125,166.06868272680674
15:14:55.213000,-0.0247955322265625,166.06868272680674
15:14:55.214000,-0.0274658203125,166.06868272680674
15:14:55.215000,0.02593994140625,166.06868272680674
15:14:55.217000,0.1674652099609375,166.06868272680674
15:14:55.217000,0.476837158203125,166.06868272680674
15:14:55.218000,0.83465576171875,166.06868272680674
15:14:55.219000,0.930023193359375,166.06868272680674
15:14:55.219000,0.59814453125,166.06868272680674
15:14:55.220000,0.1018524169921875,166.06868272680674
15:14:55.221000,-0.170135498046875,166.06868272680674
15:14:55.221000,-0.1346588134765625,166.06868272680674
15:14:55.328000,-0.0476837158203125,166.06868272680674
15:14:55.329000,-0.0732421875,166.06868272680674
15:14:55.330000,-0.1010894775390625,166.06868272680674
15:14:55.331000,-0.0858306884765625,166.06868272680674
15:14:55.359000,-0.0904083251953125,166.06868272680674
15:14:55.360000,-0.118255615234375,166.06868272680674
15:14:55.360000,-0.1438140869140625,166.06868272680674
15:14:55.361000,-0.1377105712890625,166.06868272680674
15:14:55.362000,-0.099945068359375,166.06868272680674
15:14:55.362000,-0.0453948974609375,166.06868272680674
15:14:55.363000,0.002288818359375,166.06868272680674
15:14:55.364000,0.0286102294921875,166.06868272680674
15:14:55.365000,0.0507354736328125,166.06868272680674
15:14:55.366000,0.0621795654296875,166.06868272680674
15:14:55.367000,0.0507354736328125,166.06868272680674
15:14:55.367000,0.0049591064453125,166.06868272680674
15:14:55.463000,-0.041961669921875,165.98360655737704
15:14:55.464000,-0.0274658203125,165.98360655737704
15:14:55.465000,0.048828125,165.98360655737704
15:14:55.465000,0.1003265380859375,165.98360655737704
15:14:55.466000,0.07171630859375,165.98360655737704
15:14:55.467000,0.0057220458984375,165.98360655737704
15:14:55.467000,-0.0110626220703125,165.98360655737704
15:14:55.468000,0.0377655029296875,165.98360655737704
15:14:55.469000,0.10223388671875,165.98360655737704
15:14:55.469000,0.1140594482421875,165.98360655737704
15:14:55.470000,0.0499725341796875,165.98360655737704
15:14:55.470000,-0.0335693359375,165.98360655737704
15:14:55.471000,-0.0759124755859375,165.98360655737704
15:14:55.472000,-0.049591064453125,165.98360655737704
15:14:55.472000,0.019073486328125,165.98360655737704
15:14:55.473000,0.05950927734375,165.98360655737704
15:14:55.583000,0.0308990478515625,166.06868272680674
15:14:55.584000,-0.052642822265625,166.06868272680674
15:14:55.585000,-0.12359619140625,166.06868272680674
15:14:55.586000,-0.1102447509765625,166.06868272680674
15:14:55.586000,-0.0202178955078125,166.06868272680674
15:14:55.587000,0.064849853515625,166.06868272680674
15:14:55.588000,0.0720977783203125,166.06868272680674
15:14:55.588000,0.0316619873046875,166.06868272680674
15:14:55.589000,0.006866455078125,166.06868272680674
15:14:55.589000,0.029754638671875,166.06868272680674
15:14:55.590000,0.0774383544921875,166.06868272680674
15:14:55.590000,0.0835418701171875,166.06868272680674
15:14:55.591000,0.0518798828125,166.06868272680674
15:14:55.592000,0.03509521484375,166.06868272680674
15:14:55.592000,0.0545501708984375,166.06868272680674
15:14:55.593000,0.0789642333984375,166.06868272680674
15:14:55.706000,0.0469207763671875,165.98360655737704
15:14:55.707000,-0.01068115234375,165.98360655737704
15:14:55.708000,-0.0072479248046875,165.98360655737704
15:14:55.709000,0.0354766845703125,165.98360655737704
15:14:55.709000,0.0194549560546875,165.98360655737704
15:14:55.710000,-0.048828125,165.98360655737704
15:14:55.710000,-0.067138671875,165.98360655737704
15:14:55.711000,-0.0186920166015625,165.98360655737704
15:14:55.712000,0.01068115234375,165.98360655737704
15:14:55.712000,-0.0308990478515625,165.98360655737704
15:14:55.713000,-0.081634521484375,165.98360655737704
15:14:55.714000,-0.0640869140625,165.98360655737704
15:14:55.714000,-0.0293731689453125,165.98360655737704
15:14:55.715000,-0.0640869140625,165.98360655737704
15:14:55.715000,-0.1392364501953125,165.98360655737704
15:14:55.716000,-0.15869140625,165.98360655737704
15:14:55.838000,-0.1003265380859375,165.98360655737704
15:14:55.839000,-0.028228759765625,165.98360655737704
15:14:55.840000,-0.0217437744140625,165.98360655737704
15:14:55.840000,-0.0701904296875,165.98360655737704
15:14:55.841000,-0.09613037109375,165.98360655737704
15:14:55.842000,-0.0736236572265625,165.98360655737704
15:14:55.842000,-0.043487548828125,165.98360655737704
15:14:55.843000,-0.025177001953125,165.98360655737704
15:14:55.843000,0.0,165.98360655737704
15:14:55.844000,0.0308990478515625,165.98360655737704
15:14:55.845000,0.0415802001953125,165.98360655737704
15:14:55.846000,0.025177001953125,165.98360655737704
15:14:55.847000,0.0057220458984375,165.98360655737704
15:14:55.848000,0.006866455078125,165.98360655737704
15:14:55.848000,0.020599365234375,165.98360655737704
15:14:55.849000,0.02899169921875,165.98360655737704
15:14:55.958000,0.034332275390625,167.3491975650249
15:14:55.959000,0.0263214111328125,167.3491975650249
15:14:55.960000,0.0,167.3491975650249
15:14:55.960000,-0.04119873046875,167.3491975650249
15:14:55.961000,-0.0713348388671875,167.3491975650249
15:14:55.961000,-0.0774383544921875,167.3491975650249
15:14:55.962000,-0.0637054443359375,167.3491975650249
15:14:55.962000,-0.032806396484375,167.3491975650249
15:14:55.963000,-0.0041961669921875,167.3491975650249
15:14:55.964000,0.006866455078125,167.3491975650249
15:14:55.964000,0.018310546875,167.3491975650249
15:14:55.965000,0.019073486328125,167.3491975650249
15:14:55.965000,-0.0003814697265625,167.3491975650249
15:14:55.966000,0.0118255615234375,167.3491975650249
15:14:55.967000,0.035858154296875,167.3491975650249
15:14:55.967000,0.078582763671875,167.3491975650249
15:14:56.079000,0.2704620361328125,167.3491975650249
15:14:56.080000,0.6000518798828125,167.3491975650249
15:14:56.081000,0.811767578125,167.3491975650249
15:14:56.082000,0.6748199462890625,167.3491975650249
15:14:56.083000,0.275421142578125,167.3491975650249
15:14:56.084000,-0.0579833984375,167.3491975650249
15:14:56.085000,-0.1300811767578125,167.3491975650249
15:14:56.086000,-0.0690460205078125,167.3491975650249
15:14:56.087000,-0.0804901123046875,167.3491975650249
15:14:56.087000,-0.12969970703125,167.3491975650249
15:14:56.088000,-0.12969970703125,167.3491975650249
15:14:56.089000,-0.1232147216796875,167.3491975650249
15:14:56.089000,-0.130462646484375,167.3491975650249
15:14:56.090000,-0.15106201171875,167.3491975650249
15:14:56.091000,-0.1628875732421875,167.3491975650249
15:14:56.091000,-0.147247314453125,167.3491975650249
15:14:56.213000,-0.1560211181640625,163.63636363636365
15:14:56.216000,-0.2044677734375,163.63636363636365
15:14:56.217000,-0.2079010009765625,163.63636363636365
15:14:56.218000,-0.13427734375,163.63636363636365
15:14:56.219000,-0.05950927734375,163.63636363636365
15:14:56.220000,-0.0518798828125,163.63636363636365
15:14:56.221000,-0.0949859619140625,163.63636363636365
15:14:56.222000,-0.113677978515625,163.63636363636365
15:14:56.223000,-0.06103515625,163.63636363636365
15:14:56.224000,0.01068115234375,163.63636363636365
15:14:56.225000,0.0293731689453125,163.63636363636365
15:14:56.226000,0.0049591064453125,163.63636363636365
15:14:56.226000,-0.0392913818359375,163.63636363636365
15:14:56.227000,-0.0881195068359375,163.63636363636365
15:14:56.228000,-0.103759765625,163.63636363636365
15:14:56.229000,-0.0766754150390625,163.63636363636365
15:14:56.333000,-0.04425048828125,163.63636363636365
15:14:56.334000,-0.0194549560546875,163.63636363636365
15:14:56.335000,-0.0164031982421875,163.63636363636365
15:14:56.335000,-0.0301361083984375,163.63636363636365
15:14:56.336000,-0.0244140625,163.63636363636365
15:14:56.337000,0.000762939453125,163.63636363636365
15:14:56.338000,0.0057220458984375,163.63636363636365
15:14:56.338000,-0.016021728515625,163.63636363636365
15:14:56.339000,-0.0499725341796875,163.63636363636365
15:14:56.340000,-0.077056884765625,163.63636363636365
15:14:56.340000,-0.0942230224609375,163.63636363636365
15:14:56.341000,-0.1232147216796875,163.63636363636365
15:14:56.341000,-0.16021728515625,163.63636363636365
15:14:56.342000,-0.18310546875,163.63636363636365
15:14:56.342000,-0.1567840576171875,163.63636363636365
15:14:56.343000,-0.09765625,163.63636363636365
15:14:56.454000,-0.05950927734375,163.63636363636365
15:14:56.455000,-0.03509521484375,163.63636363636365
15:14:56.455000,0.0,163.63636363636365
15:14:56.456000,0.0362396240234375,163.63636363636365
15:14:56.457000,0.0469207763671875,163.63636363636365
15:14:56.458000,0.04730224609375,163.63636363636365
15:14:56.458000,0.0812530517578125,163.63636363636365
15:14:56.459000,0.1392364501953125,163.63636363636365
15:14:56.460000,0.1575469970703125,163.63636363636365
15:14:56.462000,0.10986328125,163.63636363636365
15:14:56.463000,0.0431060791015625,163.63636363636365
15:14:56.464000,0.0118255615234375,163.63636363636365
15:14:56.465000,-0.003814697265625,163.63636363636365
15:14:56.466000,-0.0247955322265625,163.63636363636365
15:14:56.466000,-0.0354766845703125,163.63636363636365
15:14:56.467000,-0.0095367431640625,163.63636363636365
15:14:56.588000,0.057220458984375,163.63636363636365
15:14:56.589000,0.1194000244140625,163.63636363636365
15:14:56.590000,0.1369476318359375,163.63636363636365
15:14:56.590000,0.1255035400390625,163.63636363636365
15:14:56.591000,0.0995635986328125,163.63636363636365
15:14:56.592000,0.0705718994140625,163.63636363636365
15:14:56.592000,0.06103515625,163.63636363636365
15:14:56.593000,0.06103515625,163.63636363636365
15:14:56.593000,0.060272216796875,163.63636363636365
15:14:56.594000,0.066375732421875,163.63636363636365
15:14:56.595000,0.0728607177734375,163.63636363636365
15:14:56.595000,0.0789642333984375,163.63636363636365
15:14:56.596000,0.0942230224609375,163.63636363636365
15:14:56.596000,0.09918212890625,163.63636363636365
15:14:56.597000,0.080108642578125,163.63636363636365
15:14:56.597000,0.0507354736328125,163.63636363636365
15:14:56.724000,0.0461578369140625,161.0337972166998
15:14:56.726000,0.087738037109375,161.0337972166998
15:14:56.727000,0.1628875732421875,161.0337972166998
15:14:56.728000,0.2101898193359375,161.0337972166998
15:14:56.729000,0.171661376953125,161.0337972166998
15:14:56.730000,0.0759124755859375,161.0337972166998
15:14:56.731000,0.009918212890625,161.0337972166998
15:14:56.732000,0.005340576171875,161.0337972166998
15:14:56.734000,0.0232696533203125,161.0337972166998
15:14:56.734000,0.0194549560546875,161.0337972166998
15:14:56.735000,0.0011444091796875,161.0337972166998
15:14:56.737000,-0.0064849853515625,161.0337972166998
15:14:56.738000,-0.026702880859375,161.0337972166998
15:14:56.739000,-0.07476806640625,161.0337972166998
15:14:56.739000,-0.118255615234375,161.0337972166998
15:14:56.740000,-0.128936767578125,161.0337972166998
15:14:56.831000,-0.11749267578125,160.5550049554014
15:14:56.832000,-0.09002685546875,160.5550049554014
15:14:56.832000,-0.054168701171875,160.5550049554014
15:14:56.833000,-0.02899169921875,160.5550049554014
15:14:56.834000,-0.0072479248046875,160.5550049554014
15:14:56.835000,0.020599365234375,160.5550049554014
15:14:56.835000,0.1049041748046875,160.5550049554014
15:14:56.836000,0.3360748291015625,160.5550049554014
15:14:56.837000,0.6664276123046875,160.5550049554014
15:14:56.838000,0.8632659912109375,160.5550049554014
15:14:56.838000,0.732421875,160.5550049554014
15:14:56.839000,0.3231048583984375,160.5550049554014
15:14:56.840000,-0.09765625,160.5550049554014
15:14:56.841000,-0.2902984619140625,160.5550049554014
15:14:56.841000,-0.279998779296875,160.5550049554014
15:14:56.842000,-0.2490997314453125,160.5550049554014
15:14:56.963000,-0.2292633056640625,164.80162767039673
15:14:56.964000,-0.1949310302734375,164.80162767039673
15:14:56.965000,-0.19073486328125,164.80162767039673
15:14:56.966000,-0.234222412109375,164.80162767039673
15:14:56.968000,-0.286102294921875,164.80162767039673
15:14:56.968000,-0.30059814453125,164.80162767039673
15:14:56.969000,-0.2590179443359375,164.80162767039673
15:14:56.970000,-0.1964569091796875,164.80162767039673
15:14:56.971000,-0.1705169677734375,164.80162767039673
15:14:56.972000,-0.1720428466796875,164.80162767039673
15:14:56.972000,-0.145721435546875,164.80162767039673
15:14:56.973000,-0.1049041748046875,164.80162767039673
15:14:56.974000,-0.0995635986328125,164.80162767039673
15:14:56.975000,-0.1461029052734375,164.80162767039673
15:14:56.975000,-0.2201080322265625,164.80162767039673
15:14:56.976000,-0.2559661865234375,164.80162767039673
15:14:57.083000,-0.206756591796875,164.80162767039673
15:14:57.084000,-0.103759765625,164.80162767039673
15:14:57.085000,-0.0041961669921875,164.80162767039673
15:14:57.085000,0.074005126953125,164.80162767039673
15:14:57.086000,0.1132965087890625,164.80162767039673
15:14:57.087000,0.09002685546875,164.80162767039673
15:14:57.088000,0.0244140625,164.80162767039673
15:14:57.088000,-0.0518798828125,164.80162767039673
15:14:57.089000,-0.09613037109375,164.80162767039673
15:14:57.090000,-0.0629425048828125,164.80162767039673
15:14:57.091000,0.018310546875,164.80162767039673
15:14:57.091000,0.0415802001953125,164.80162767039673
15:14:57.092000,-0.031280517578125,164.80162767039673
15:14:57.093000,-0.113677978515625,164.80162767039673
15:14:57.093000,-0.1163482666015625,164.80162767039673
15:14:57.094000,-0.057220458984375,164.80162767039673
15:14:57.204000,-0.0152587890625,164.80162767039673
15:14:57.204000,-0.0125885009765625,164.80162767039673
15:14:57.205000,0.002288818359375,164.80162767039673
15:14:57.206000,0.042724609375,164.80162767039673
15:14:57.206000,0.0732421875,164.80162767039673
15:14:57.207000,0.0637054443359375,164.80162767039673
15:14:57.208000,0.014495849609375,164.80162767039673
15:14:57.208000,-0.055694580078125,164.80162767039673
15:14:57.209000,-0.1220703125,164.80162767039673
15:14:57.210000,-0.14801025390625,164.80162767039673
15:14:57.211000,-0.128173828125,164.80162767039673
15:14:57.212000,-0.115966796875,164.80162767039673
15:14:57.213000,-0.1361846923828125,164.80162767039673
15:14:57.214000,-0.1621246337890625,164.80162767039673
15:14:57.214000,-0.1895904541015625,164.80162767039673
15:14:57.215000,-0.2223968505859375,164.80162767039673
15:14:57.339000,-0.238037109375,163.63636363636365
15:14:57.340000,-0.1979827880859375,163.63636363636365
15:14:57.341000,-0.1155853271484375,163.63636363636365
15:14:57.342000,-0.0514984130859375,163.63636363636365
15:14:57.343000,-0.0423431396484375,163.63636363636365
15:14:57.343000,-0.066375732421875,163.63636363636365
15:14:57.344000,-0.0743865966796875,163.63636363636365
15:14:57.345000,-0.054931640625,163.63636363636365
15:14:57.346000,-0.03814697265625,163.63636363636365
15:14:57.347000,-0.0476837158203125,163.63636363636365
15:14:57.348000,-0.060272216796875,163.63636363636365
15:14:57.348000,-0.042724609375,163.63636363636365
15:14:57.349000,-0.01373291015625,163.63636363636365
15:14:57.350000,-0.006103515625,163.63636363636365
15:14:57.350000,-0.016021728515625,163.63636363636365
15:14:57.351000,-0.035858154296875,163.63636363636365
15:14:57.458000,-0.045013427734375,164.8854961832061
15:14:57.459000,-0.043487548828125,164.8854961832061
15:14:57.461000,-0.040435791015625,164.8854961832061
15:14:57.461000,-0.01678466796875,164.8854961832061
15:14:57.462000,0.034332275390625,164.8854961832061
15:14:57.463000,0.0583648681640625,164.8854961832061
15:14:57.464000,0.0331878662109375,164.8854961832061
15:14:57.465000,-0.0091552734375,164.8854961832061
15:14:57.466000,-0.052642822265625,164.8854961832061
15:14:57.467000,-0.10833740234375,164.8854961832061
15:14:57.468000,-0.1682281494140625,164.8854961832061
15:14:57.468000,-0.1880645751953125,164.8854961832061
15:14:57.469000,-0.1331329345703125,164.8854961832061
15:14:57.470000,-0.0469207763671875,164.8854961832061
15:14:57.470000,-0.0118255615234375,164.8854961832061
15:14:57.471000,-0.0396728515625,164.8854961832061
15:14:57.579000,-0.0823974609375,164.8854961832061
15:14:57.580000,-0.079345703125,164.8854961832061
15:14:57.581000,-0.081634521484375,164.8854961832061
15:14:57.582000,-0.1300811767578125,164.8854961832061
15:14:57.583000,-0.1617431640625,164.8854961832061
15:14:57.584000,-0.153350830078125,164.8854961832061
15:14:57.584000,-0.0820159912109375,164.8854961832061
15:14:57.585000,0.1316070556640625,164.8854961832061
15:14:57.586000,0.433349609375,164.8854961832061
15:14:57.586000,0.605010986328125,164.8854961832061
15:14:57.587000,0.4741668701171875,164.8854961832061
15:14:57.587000,0.1270294189453125,164.8854961832061
15:14:57.588000,-0.1926422119140625,164.8854961832061
15:14:57.589000,-0.3002166748046875,164.8854961832061
15:14:57.589000,-0.254058837890625,164.8854961832061
15:14:57.590000,-0.2086639404296875,164.8854961832061
15:14:57.714000,-0.17547607421875,164.71784443314695
15:14:57.715000,-0.15411376953125,164.71784443314695
15:14:57.717000,-0.17547607421875,164.71784443314695
15:14:57.718000,-0.1834869384765625,164.71784443314695
15:14:57.719000,-0.1422882080078125,164.71784443314695
15:14:57.720000,-0.08392333984375,164.71784443314695
15:14:57.721000,-0.064849853515625,164.71784443314695
15:14:57.722000,-0.103759765625,164.71784443314695
15:14:57.723000,-0.152587890625,164.71784443314695
15:14:57.724000,-0.1708984375,164.71784443314695
15:14:57.725000,-0.1522064208984375,164.71784443314695
15:14:57.726000,-0.1316070556640625,164.71784443314695
15:14:57.727000,-0.13275146484375,164.71784443314695
15:14:57.728000,-0.1430511474609375,164.71784443314695
15:14:57.728000,-0.153350830078125,164.71784443314695
15:14:57.729000,-0.1590728759765625,164.71784443314695
15:14:57.833000,-0.17547607421875,164.8854961832061
15:14:57.834000,-0.2017974853515625,164.8854961832061
15:14:57.835000,-0.1995086669921875,164.8854961832061
15:14:57.836000,-0.162506103515625,164.8854961832061
15:14:57.837000,-0.11749267578125,164.8854961832061
15:14:57.838000,-0.0972747802734375,164.8854961832061
15:14:57.838000,-0.083160400390625,164.8854961832061
15:14:57.839000,-0.0461578369140625,164.8854961832061
15:14:57.840000,-0.006866455078125,164.8854961832061
15:14:57.841000,-0.01220703125,164.8854961832061
15:14:57.841000,-0.0640869140625,164.8854961832061
15:14:57.842000,-0.1190185546875,164.8854961832061
15:14:57.842000,-0.15106201171875,164.8854961832061
15:14:57.843000,-0.1560211181640625,164.8854961832061
15:14:57.844000,-0.139617919921875,164.8854961832061
15:14:57.844000,-0.1102447509765625,164.8854961832061
15:14:57.955000,-0.091552734375,164.8854961832061
15:14:57.956000,-0.11138916015625,164.8854961832061
15:14:57.957000,-0.160980224609375,164.8854961832061
15:14:57.957000,-0.1922607421875,164.8854961832061
15:14:57.958000,-0.1659393310546875,164.8854961832061
15:14:57.959000,-0.11138916015625,164.8854961832061
15:14:57.959000,-0.0797271728515625,164.8854961832061
15:14:57.960000,-0.061798095703125,164.8854961832061
15:14:57.961000,-0.008392333984375,164.8854961832061
15:14:57.961000,0.0732421875,164.8854961832061
15:14:57.962000,0.107574462890625,164.8854961832061
15:14:57.963000,0.084686279296875,164.8854961832061
15:14:57.964000,0.069427490234375,164.8854961832061
15:14:57.965000,0.0789642333984375,164.8854961832061
15:14:57.966000,0.075531005859375,164.8854961832061
15:14:57.967000,0.0446319580078125,164.8854961832061
15:14:58.103000,0.000762939453125,164.8854961832061
15:14:58.104000,-0.0270843505859375,164.8854961832061
15:14:58.105000,-0.041961669921875,164.8854961832061
15:14:58.106000,-0.046539306640625,164.8854961832061
15:14:58.107000,-0.034332275390625,164.8854961832061
15:14:58.107000,-0.02288818359375,164.8854961832061
15:14:58.108000,-0.028228759765625,164.8854961832061
15:14:58.108000,-0.0354766845703125,164.8854961832061
15:14:58.109000,-0.0324249267578125,164.8854961832061
15:14:58.110000,-0.014495849609375,164.8854961832061
15:14:58.110000,0.0179290771484375,164.8854961832061
15:14:58.111000,0.0644683837890625,164.8854961832061
15:14:58.111000,0.10833740234375,164.8854961832061
15:14:58.112000,0.115966796875,164.8854961832061
15:14:58.112000,0.0881195068359375,164.8854961832061
15:14:58.113000,0.051116943359375,164.8854961832061
15:14:58.208000,0.012969970703125,164.8854961832061
15:14:58.209000,-0.0385284423828125,164.8854961832061
15:14:58.210000,-0.0896453857421875,164.8854961832061
15:14:58.211000,-0.1163482666015625,164.8854961832061
15:14:58.212000,-0.1312255859375,164.8854961832061
15:14:58.213000,-0.156402587890625,164.8854961832061
15:14:58.214000,-0.1888275146484375,164.8854961832061
15:14:58.214000,-0.20294189453125,164.8854961832061
15:14:58.215000,-0.1987457275390625,164.8854961832061
15:14:58.216000,-0.2101898193359375,164.8854961832061
15:14:58.216000,-0.2166748046875,164.8854961832061
15:14:58.217000,-0.177001953125,164.8854961832061
15:14:58.217000,-0.09002685546875,164.8854961832061
15:14:58.218000,-0.0041961669921875,164.8854961832061
15:14:58.219000,0.0030517578125,164.8854961832061
15:14:58.219000,0.03509521484375,164.8854961832061
15:14:58.328000,0.286102294921875,164.8854961832061
15:14:58.329000,0.6809234619140625,164.8854961832061
15:14:58.329000,0.860595703125,164.8854961832061
15:14:58.330000,0.6053924560546875,164.8854961832061
15:14:58.331000,0.103759765625,164.8854961832061
15:14:58.331000,-0.2777099609375,164.8854961832061
15:14:58.332000,-0.3692626953125,164.8854961832061
15:14:58.332000,-0.304412841796875,164.8854961832061
15:14:58.333000,-0.2536773681640625,164.8854961832061
15:14:58.333000,-0.2140045166015625,164.8854961832061
15:14:58.334000,-0.2002716064453125,164.8854961832061
15:14:58.334000,-0.2391815185546875,164.8854961832061
15:14:58.335000,-0.264739990234375,164.8854961832061
15:14:58.336000,-0.2422332763671875,164.8854961832061
15:14:58.336000,-0.2166748046875,164.8854961832061
15:14:58.337000,-0.2193450927734375,164.8854961832061
15:14:58.466000,-0.2254486083984375,164.8854961832061
15:14:58.467000,-0.2071380615234375,164.8854961832061
15:14:58.468000,-0.1728057861328125,164.8854961832061
15:14:58.469000,-0.1678466796875,164.8854961832061
15:14:58.470000,-0.2048492431640625,164.8854961832061
15:14:58.471000,-0.2239227294921875,164.8854961832061
15:14:58.472000,-0.183868408203125,164.8854961832061
15:14:58.473000,-0.1354217529296875,164.8854961832061
15:14:58.474000,-0.1331329345703125,164.8854961832061
15:14:58.475000,-0.147247314453125,164.8854961832061
15:14:58.476000,-0.1255035400390625,164.8854961832061
15:14:58.477000,-0.0644683837890625,164.8854961832061
15:14:58.478000,-0.020599365234375,164.8854961832061
15:14:58.479000,-0.0423431396484375,164.8854961832061
15:14:58.480000,-0.0766754150390625,164.8854961832061
15:14:58.481000,-0.081634521484375,164.8854961832061
15:14:58.583000,-0.077056884765625,164.8854961832061
15:14:58.584000,-0.0812530517578125,164.8854961832061
15:14:58.585000,-0.0835418701171875,164.8854961832061
15:14:58.586000,-0.074005126953125,164.8854961832061
15:14:58.587000,-0.070953369140625,164.8854961832061
15:14:58.588000,-0.098419189453125,164.8854961832061
15:14:58.588000,-0.144195556640625,164.8854961832061
15:14:58.589000,-0.1857757568359375,164.8854961832061
15:14:58.590000,-0.2124786376953125,164.8854961832061
15:14:58.591000,-0.2166748046875,164.8854961832061
15:14:58.592000,-0.171661376953125,164.8854961832061
15:14:58.593000,-0.0957489013671875,164.8854961832061
15:14:58.594000,-0.0362396240234375,164.8854961832061
15:14:58.594000,-0.0064849853515625,164.8854961832061
15:14:58.595000,0.006103515625,164.8854961832061
15:14:58.596000,0.0030517578125,164.8854961832061
15:14:58.706000,-0.03662109375,164.8854961832061
15:14:58.707000,-0.1247406005859375,164.8854961832061
15:14:58.707000,-0.1888275146484375,164.8854961832061
15:14:58.708000,-0.147247314453125,164.8854961832061
15:14:58.709000,-0.01983642578125,164.8854961832061
15:14:58.709000,0.0885009765625,164.8854961832061
15:14:58.710000,0.1194000244140625,164.8854961832061
15:14:58.710000,0.093841552734375,164.8854961832061
15:14:58.711000,0.0743865966796875,164.8854961832061
15:14:58.712000,0.077056884765625,164.8854961832061
15:14:58.712000,0.0461578369140625,164.8854961832061
15:14:58.713000,-0.0362396240234375,164.8854961832061
15:14:58.713000,-0.098419189453125,164.8854961832061
15:14:58.714000,-0.107574462890625,164.8854961832061
15:14:58.714000,-0.0823974609375,164.8854961832061
15:14:58.715000,-0.0469207763671875,164.8854961832061
15:14:58.838000,-0.026702880859375,164.8854961832061
15:14:58.840000,-0.0133514404296875,164.8854961832061
15:14:58.841000,0.011444091796875,164.8854961832061
15:14:58.842000,0.038909912109375,164.8854961832061
15:14:58.844000,0.0446319580078125,164.8854961832061
15:14:58.845000,0.0125885009765625,164.8854961832061
15:14:58.846000,-0.06103515625,164.8854961832061
15:14:58.848000,-0.1354217529296875,164.8854961832061
15:14:58.850000,-0.1506805419921875,164.8854961832061
15:14:58.851000,-0.1132965087890625,164.8854961832061
15:14:58.852000,-0.074005126953125,164.8854961832061
15:14:58.853000,-0.049591064453125,164.8854961832061
15:14:58.854000,-0.048065185546875,164.8854961832061
15:14:58.855000,-0.0492095947265625,164.8854961832061
15:14:58.855000,-0.018310546875,164.8854961832061
15:14:58.856000,0.0301361083984375,164.8854961832061
15:14:58.963000,0.0579833984375,164.8854961832061
15:14:58.963000,0.023651123046875,164.8854961832061
15:14:58.964000,-0.048065185546875,164.8854961832061
15:14:58.965000,-0.06256103515625,164.8854961832061
15:14:58.966000,0.0091552734375,164.8854961832061
15:14:58.966000,0.0850677490234375,164.8854961832061
15:14:58.967000,0.092315673828125,164.8854961832061
15:14:58.968000,0.02899169921875,164.8854961832061
15:14:58.969000,-0.0362396240234375,164.8854961832061
15:14:58.970000,-0.0274658203125,164.8854961832061
15:14:58.971000,0.00152587890625,164.8854961832061
15:14:58.971000,0.00152587890625,164.8854961832061
15:14:58.972000,0.0247955322265625,164.8854961832061
15:14:58.973000,0.0606536865234375,164.8854961832061
15:14:58.973000,0.150299072265625,164.8854961832061
15:14:58.974000,0.42724609375,164.8854961832061
15:14:59.086000,0.795745849609375,164.8854961832061
15:14:59.087000,0.9368896484375,164.8854961832061
15:14:59.088000,0.677490234375,164.8854961832061
15:14:59.089000,0.214385986328125,164.8854961832061
15:14:59.090000,-0.11138916015625,164.8854961832061
15:14:59.091000,-0.1445770263671875,164.8854961832061
15:14:59.093000,-0.060272216796875,164.8854961832061
15:14:59.094000,-0.046539306640625,164.8854961832061
15:14:59.095000,-0.0438690185546875,164.8854961832061
15:14:59.096000,-0.0621795654296875,164.8854961832061
15:14:59.098000,-0.13275146484375,164.8854961832061
15:14:59.098000,-0.164031982421875,164.8854961832061
15:14:59.099000,-0.1338958740234375,164.8854961832061
15:14:59.100000,-0.0957489013671875,164.8854961832061
15:14:59.101000,-0.06866455078125,164.8854961832061
15:14:59.101000,-0.0560760498046875,164.8854961832061
15:14:59.213000,-0.0637054443359375,164.8854961832061
15:14:59.214000,-0.1148223876953125,164.8854961832061
15:14:59.215000,-0.2056121826171875,164.8854961832061
15:14:59.216000,-0.29296875,164.8854961832061
15:14:59.217000,-0.3032684326171875,164.8854961832061
15:14:59.218000,-0.2460479736328125,164.8854961832061
15:14:59.219000,-0.1689910888671875,164.8854961832061
15:14:59.220000,-0.0804901123046875,164.8854961832061
15:14:59.222000,0.003814697265625,164.8854961832061
15:14:59.223000,0.06561279296875,164.8854961832061
15:14:59.224000,0.1056671142578125,164.8854961832061
15:14:59.225000,0.12664794921875,164.8854961832061
15:14:59.225000,0.1422882080078125,164.8854961832061
15:14:59.226000,0.16326904296875,164.8854961832061
15:14:59.227000,0.196075439453125,164.8854961832061
15:14:59.227000,0.225830078125,164.8854961832061
15:14:59.333000,0.222015380859375,153.89312977099237
15:14:59.334000,0.17547607421875,153.89312977099237
15:14:59.335000,0.10833740234375,153.89312977099237
15:14:59.337000,0.0614166259765625,153.89312977099237
15:14:59.338000,0.0370025634765625,153.89312977099237
15:14:59.340000,-0.0133514404296875,153.89312977099237
15:14:59.341000,-0.0881195068359375,153.89312977099237
15:14:59.342000,-0.1270294189453125,153.89312977099237
15:14:59.344000,-0.107574462890625,153.89312977099237
15:14:59.344000,-0.0751495361328125,153.89312977099237
15:14:59.345000,-0.0507354736328125,153.89312977099237
15:14:59.346000,-0.0087738037109375,153.89312977099237
15:14:59.347000,0.0682830810546875,153.89312977099237
15:14:59.348000,0.14495849609375,153.89312977099237
15:14:59.348000,0.182342529296875,153.89312977099237
15:14:59.349000,0.1743316650390625,153.89312977099237
15:14:59.459000,0.1377105712890625,153.89312977099237
15:14:59.460000,0.086212158203125,153.89312977099237
15:14:59.461000,0.051116943359375,153.89312977099237
15:14:59.463000,0.060272216796875,153.89312977099237
15:14:59.464000,0.081634521484375,153.89312977099237
15:14:59.465000,0.052642822265625,153.89312977099237
15:14:59.467000,-0.0041961669921875,153.89312977099237
15:14:59.468000,-0.02593994140625,153.89312977099237
15:14:59.469000,0.006103515625,153.89312977099237
15:14:59.470000,0.031280517578125,153.89312977099237
15:14:59.471000,0.0255584716796875,153.89312977099237
15:14:59.472000,0.0301361083984375,153.89312977099237
15:14:59.472000,0.0614166259765625,153.89312977099237
15:14:59.473000,0.093841552734375,153.89312977099237
15:14:59.474000,0.092315673828125,153.89312977099237
15:14:59.475000,0.0514984130859375,153.89312977099237
15:14:59.588000,-0.0011444091796875,153.89312977099237
15:14:59.589000,-0.05645751953125,153.89312977099237
15:14:59.590000,-0.0995635986328125,153.89312977099237
15:14:59.591000,-0.1087188720703125,153.89312977099237
15:14:59.591000,-0.0682830810546875,153.89312977099237
15:14:59.592000,0.0091552734375,153.89312977099237
15:14:59.593000,0.0720977783203125,153.89312977099237
15:14:59.593000,0.0705718994140625,153.89312977099237
15:14:59.594000,0.0247955322265625,153.89312977099237
15:14:59.595000,-0.01068115234375,153.89312977099237
15:14:59.595000,-0.0034332275390625,153.89312977099237
15:14:59.596000,0.0064849853515625,153.89312977099237
15:14:59.597000,-0.0240325927734375,153.89312977099237
15:14:59.598000,-0.081634521484375,153.89312977099237
15:14:59.599000,-0.112152099609375,153.89312977099237
15:14:59.599000,-0.0789642333984375,153.89312977099237
15:14:59.708000,0.0064849853515625,153.89312977099237
15:14:59.710000,0.1087188720703125,153.89312977099237
15:14:59.712000,0.1827239990234375,153.89312977099237
15:14:59.713000,0.1720428466796875,153.89312977099237
15:14:59.715000,0.0885009765625,153.89312977099237
15:14:59.716000,-0.0118255615234375,153.89312977099237
15:14:59.717000,-0.0934600830078125,153.89312977099237
15:14:59.718000,-0.1384735107421875,153.89312977099237
15:14:59.719000,-0.1529693603515625,153.89312977099237
15:14:59.720000,-0.1644134521484375,153.89312977099237
15:14:59.721000,-0.188446044921875,153.89312977099237
15:14:59.722000,-0.208282470703125,153.89312977099237
15:14:59.723000,-0.1773834228515625,153.89312977099237
15:14:59.724000,-0.0888824462890625,153.89312977099237
15:14:59.725000,-0.017547607421875,153.89312977099237
15:14:59.725000,-0.020599365234375,153.89312977099237
15:14:59.829000,-0.0820159912109375,153.89312977099237
15:14:59.830000,-0.133514404296875,153.89312977099237
15:14:59.831000,-0.0904083251953125,153.89312977099237
15:14:59.832000,0.01373291015625,153.89312977099237
15:14:59.833000,0.098419189453125,153.89312977099237
15:14:59.833000,0.28839111328125,153.89312977099237
15:14:59.834000,0.6671905517578125,153.89312977099237
15:14:59.835000,0.9674072265625,153.89312977099237
15:14:59.836000,0.855255126953125,153.89312977099237
15:14:59.836000,0.38299560546875,153.89312977099237
15:14:59.837000,-0.048828125,153.89312977099237
15:14:59.838000,-0.1499176025390625,153.89312977099237
15:14:59.838000,-0.0457763671875,153.89312977099237
15:14:59.839000,-0.0171661376953125,153.89312977099237
15:14:59.840000,-0.075531005859375,153.89312977099237
15:14:59.841000,-0.0949859619140625,153.89312977099237
15:14:59.963000,-0.099945068359375,153.89312977099237
15:14:59.964000,-0.107574462890625,153.89312977099237
15:14:59.965000,-0.0934600830078125,153.89312977099237
15:14:59.966000,-0.1110076904296875,153.89312977099237
15:14:59.966000,-0.15869140625,153.89312977099237
15:14:59.967000,-0.189971923828125,153.89312977099237
15:14:59.968000,-0.1895904541015625,153.89312977099237
15:14:59.969000,-0.1689910888671875,153.89312977099237
15:14:59.970000,-0.146484375,153.89312977099237
15:14:59.971000,-0.1338958740234375,153.89312977099237
15:14:59.972000,-0.1285552978515625,153.89312977099237
15:14:59.973000,-0.1434326171875,153.89312977099237
15:14:59.974000,-0.1617431640625,153.89312977099237
15:14:59.975000,-0.1277923583984375,153.89312977099237
15:14:59.976000,-0.0400543212890625,153.89312977099237
15:14:59.976000,0.0278472900390625,153.89312977099237
15:15:00.084000,0.0213623046875,153.89312977099237
15:15:00.085000,-0.019073486328125,153.89312977099237
15:15:00.086000,-0.0225067138671875,153.89312977099237
15:15:00.087000,0.01068115234375,153.89312977099237
15:15:00.088000,0.026702880859375,153.89312977099237
15:15:00.088000,0.02593994140625,153.89312977099237
15:15:00.089000,0.0247955322265625,153.89312977099237
15:15:00.089000,0.01678466796875,153.89312977099237
15:15:00.090000,0.000762939453125,153.89312977099237
15:15:00.091000,-0.01068115234375,153.89312977099237
15:15:00.091000,-0.01373291015625,153.89312977099237
15:15:00.092000,-0.0377655029296875,153.89312977099237
15:15:00.092000,-0.0904083251953125,153.89312977099237
15:15:00.093000,-0.1354217529296875,153.89312977099237
15:15:00.093000,-0.154876708984375,153.89312977099237
15:15:00.094000,-0.177764892578125,153.89312977099237
15:15:00.205000,-0.2254486083984375,153.89312977099237
15:15:00.206000,-0.2468109130859375,153.89312977099237
15:15:00.206000,-0.206756591796875,153.89312977099237
15:15:00.207000,-0.1514434814453125,153.89312977099237
15:15:00.208000,-0.1384735107421875,153.89312977099237
15:15:00.208000,-0.1651763916015625,153.89312977099237
15:15:00.209000,-0.1567840576171875,153.89312977099237
15:15:00.210000,-0.0762939453125,153.89312977099237
15:15:00.210000,0.0080108642578125,153.89312977099237
15:15:00.211000,0.02288818359375,153.89312977099237
15:15:00.212000,-0.0316619873046875,153.89312977099237
15:15:00.212000,-0.0782012939453125,153.89312977099237
15:15:00.213000,-0.0652313232421875,153.89312977099237
15:15:00.214000,-0.0385284423828125,153.89312977099237
15:15:00.214000,-0.035858154296875,153.89312977099237
15:15:00.215000,-0.02899169921875,153.89312977099237
15:15:00.339000,0.0270843505859375,153.89312977099237
15:15:00.340000,0.1110076904296875,153.89312977099237
15:15:00.341000,0.157928466796875,153.89312977099237
15:15:00.342000,0.148773193359375,153.89312977099237
15:15:00.343000,0.0972747802734375,153.89312977099237
15:15:00.344000,0.0347137451171875,153.89312977099237
15:15:00.345000,-0.0118255615234375,153.89312977099237
15:15:00.346000,-0.0335693359375,153.89312977099237
15:15:00.347000,-0.0335693359375,153.89312977099237
15:15:00.347000,-0.016021728515625,153.89312977099237
15:15:00.348000,0.0194549560546875,153.89312977099237
15:15:00.349000,0.051116943359375,153.89312977099237
15:15:00.350000,0.0621795654296875,153.89312977099237
15:15:00.352000,0.066375732421875,153.89312977099237
15:15:00.353000,0.0736236572265625,153.89312977099237
15:15:00.355000,0.067901611328125,153.89312977099237
15:15:00.458000,0.0484466552734375,153.89312977099237
15:15:00.459000,0.0492095947265625,153.89312977099237
15:15:00.459000,0.0949859619140625,153.89312977099237
15:15:00.460000,0.14190673828125,153.89312977099237
15:15:00.461000,0.130462646484375,153.89312977099237
15:15:00.462000,0.067901611328125,153.89312977099237
15:15:00.463000,0.0286102294921875,153.89312977099237
15:15:00.464000,0.0415802001953125,153.89312977099237
15:15:00.464000,0.0621795654296875,153.89312977099237
15:15:00.465000,0.0522613525390625,153.89312977099237
15:15:00.466000,0.0385284423828125,153.89312977099237
15:15:00.467000,0.0476837158203125,153.89312977099237
15:15:00.468000,0.048065185546875,153.89312977099237
15:15:00.469000,0.0030517578125,153.89312977099237
15:15:00.469000,-0.0843048095703125,153.89312977099237
15:15:00.470000,-0.164794921875,153.89312977099237
15:15:00.579000,-0.19378662109375,153.89312977099237
15:15:00.580000,-0.176239013671875,153.89312977099237
15:15:00.581000,-0.13427734375,153.89312977099237
15:15:00.581000,-0.09002685546875,153.89312977099237
15:15:00.582000,-0.0698089599609375,153.89312977099237
15:15:00.583000,-0.0774383544921875,153.89312977099237
15:15:00.583000,-0.091552734375,153.89312977099237
15:15:00.584000,-0.0698089599609375,153.89312977099237
15:15:00.585000,-0.0270843505859375,153.89312977099237
15:15:00.586000,-0.0179290771484375,153.89312977099237
15:15:00.587000,-0.0598907470703125,153.89312977099237
15:15:00.588000,-0.1247406005859375,153.89312977099237
15:15:00.589000,-0.1556396484375,153.89312977099237
15:15:00.590000,-0.1285552978515625,153.89312977099237
15:15:00.591000,-0.106048583984375,153.89312977099237
15:15:00.592000,-0.113677978515625,153.89312977099237
15:15:00.713000,-0.128173828125,153.89312977099237
15:15:00.714000,-0.122833251953125,153.89312977099237
15:15:00.715000,0.0194549560546875,153.89312977099237
15:15:00.716000,0.377655029296875,153.89312977099237
15:15:00.717000,0.7511138916015625,153.89312977099237
15:15:00.718000,0.814056396484375,153.89312977099237
15:15:00.720000,0.510406494140625,153.89312977099237
15:15:00.721000,0.121307373046875,153.89312977099237
15:15:00.722000,-0.077056884765625,153.89312977099237
15:15:00.722000,-0.079345703125,153.89312977099237
15:15:00.723000,-0.0797271728515625,153.89312977099237
15:15:00.724000,-0.1522064208984375,153.89312977099237
15:15:00.725000,-0.1865386962890625,153.89312977099237
15:15:00.726000,-0.1537322998046875,153.89312977099237
15:15:00.726000,-0.0797271728515625,153.89312977099237
15:15:00.727000,0.0209808349609375,153.89312977099237
15:15:00.833000,0.0682830810546875,153.89312977099237
15:15:00.834000,0.0125885009765625,153.89312977099237
15:15:00.835000,-0.079345703125,153.89312977099237
15:15:00.836000,-0.118255615234375,153.89312977099237
15:15:00.855000,-0.1125335693359375,153.89312977099237
15:15:00.856000,-0.1132965087890625,153.89312977099237
15:15:00.856000,-0.1316070556640625,153.89312977099237
15:15:00.857000,-0.1308441162109375,153.89312977099237
15:15:00.858000,-0.0934600830078125,153.89312977099237
15:15:00.858000,-0.0583648681640625,153.89312977099237
15:15:00.859000,-0.060272216796875,153.89312977099237
15:15:00.860000,-0.0732421875,153.89312977099237
15:15:00.861000,-0.048065185546875,153.89312977099237
15:15:00.861000,-0.0019073486328125,153.89312977099237
15:15:00.862000,0.0080108642578125,153.89312977099237
15:15:00.863000,-0.0202178955078125,153.89312977099237
15:15:00.959000,-0.0400543212890625,153.89312977099237
15:15:00.960000,-0.0392913818359375,153.89312977099237
15:15:00.961000,-0.0553131103515625,153.89312977099237
15:15:00.963000,-0.08392333984375,153.89312977099237
15:15:00.964000,-0.0896453857421875,153.89312977099237
15:15:00.965000,-0.06561279296875,153.89312977099237
15:15:00.966000,-0.057220458984375,153.89312977099237
15:15:00.967000,-0.0934600830078125,153.89312977099237
15:15:00.968000,-0.1331329345703125,153.89312977099237
15:15:00.969000,-0.1399993896484375,153.89312977099237
15:15:00.971000,-0.1354217529296875,153.89312977099237
15:15:00.972000,-0.1300811767578125,153.89312977099237
15:15:00.973000,-0.095367431640625,153.89312977099237
15:15:00.974000,-0.023651123046875,153.89312977099237
15:15:00.974000,0.031280517578125,153.89312977099237
15:15:00.975000,0.0091552734375,153.89312977099237
15:15:01.088000,-0.0743865966796875,153.89312977099237
15:15:01.089000,-0.1373291015625,153.89312977099237
15:15:01.089000,-0.135040283203125,153.89312977099237
15:15:01.090000,-0.1018524169921875,153.89312977099237
15:15:01.091000,-0.0949859619140625,153.89312977099237
15:15:01.091000,-0.1216888427734375,153.89312977099237
15:15:01.092000,-0.1399993896484375,153.89312977099237
15:15:01.092000,-0.1331329345703125,153.89312977099237
15:15:01.093000,-0.1445770263671875,153.89312977099237
15:15:01.094000,-0.1873016357421875,153.89312977099237
15:15:01.094000,-0.225067138671875,153.89312977099237
15:15:01.095000,-0.2197265625,153.89312977099237
15:15:01.124000,-0.191497802734375,153.89312977099237
15:15:01.125000,-0.1842498779296875,153.89312977099237
15:15:01.126000,-0.1922607421875,153.89312977099237
15:15:01.127000,-0.1720428466796875,153.89312977099237
15:15:01.208000,-0.1094818115234375,153.89312977099237
15:15:01.209000,-0.054931640625,153.89312977099237
15:15:01.210000,-0.04730224609375,153.89312977099237
15:15:01.211000,-0.0568389892578125,153.89312977099237
15:15:01.212000,-0.0335693359375,153.89312977099237
15:15:01.212000,0.0278472900390625,153.89312977099237
15:15:01.213000,0.0843048095703125,153.89312977099237
15:15:01.214000,0.1087188720703125,153.89312977099237
15:15:01.214000,0.086212158203125,153.89312977099237
15:15:01.215000,0.0286102294921875,153.89312977099237
15:15:01.216000,-0.0370025634765625,153.89312977099237
15:15:01.216000,-0.0720977783203125,153.89312977099237
15:15:01.217000,-0.0446319580078125,153.89312977099237
15:15:01.218000,0.0335693359375,153.89312977099237
15:15:01.219000,0.0858306884765625,153.89312977099237
15:15:01.220000,0.05950927734375,153.89312977099237
15:15:01.330000,-0.0064849853515625,153.89312977099237
15:15:01.331000,-0.032806396484375,153.89312977099237
15:15:01.332000,-0.0102996826171875,153.89312977099237
15:15:01.333000,-0.0034332275390625,153.89312977099237
15:15:01.335000,-0.034332275390625,153.89312977099237
15:15:01.336000,-0.0507354736328125,153.89312977099237
15:15:01.337000,-0.0354766845703125,153.89312977099237
15:15:01.337000,-0.0324249267578125,153.89312977099237
15:15:01.338000,-0.0518798828125,153.89312977099237
15:15:01.339000,-0.06561279296875,153.89312977099237
15:15:01.339000,-0.0385284423828125,153.89312977099237
15:15:01.340000,0.009918212890625,153.89312977099237
15:15:01.340000,0.0408172607421875,153.89312977099237
15:15:01.341000,0.034332275390625,153.89312977099237
15:15:01.342000,-0.01068115234375,153.89312977099237
15:15:01.342000,-0.0751495361328125,153.89312977099237
15:15:01.463000,-0.086212158203125,164.8854961832061
15:15:01.465000,-0.0301361083984375,164.8854961832061
15:15:01.466000,0.0152587890625,164.8854961832061
15:15:01.466000,0.008392333984375,164.8854961832061
15:15:01.467000,-0.0041961669921875,164.8854961832061
15:15:01.468000,0.019073486328125,164.8854961832061
15:15:01.469000,0.0583648681640625,164.8854961832061
15:15:01.470000,0.045013427734375,164.8854961832061
15:15:01.471000,-0.002288818359375,164.8854961832061
15:15:01.471000,-0.051116943359375,164.8854961832061
15:15:01.472000,-0.0698089599609375,164.8854961832061
15:15:01.473000,0.1068115234375,164.8854961832061
15:15:01.473000,0.5352020263671875,164.8854961832061
15:15:01.474000,0.9098052978515625,164.8854961832061
15:15:01.475000,0.8571624755859375,164.8854961832061
15:15:01.475000,0.433349609375,164.8854961832061
15:15:01.599000,0.0652313232421875,153.89312977099237
15:15:01.600000,-0.00762939453125,153.89312977099237
15:15:01.601000,0.0492095947265625,153.89312977099237
15:15:01.602000,0.0072479248046875,153.89312977099237
15:15:01.603000,-0.0736236572265625,153.89312977099237
15:15:01.604000,-0.0751495361328125,153.89312977099237
15:15:01.605000,-0.0782012939453125,153.89312977099237
15:15:01.606000,-0.115203857421875,153.89312977099237
15:15:01.607000,-0.1308441162109375,153.89312977099237
15:15:01.607000,-0.0858306884765625,153.89312977099237
15:15:01.608000,0.005340576171875,153.89312977099237
15:15:01.609000,0.08392333984375,153.89312977099237
15:15:01.610000,0.1079559326171875,153.89312977099237
15:15:01.611000,0.0759124755859375,153.89312977099237
15:15:01.612000,0.014495849609375,153.89312977099237
15:15:01.613000,-0.041961669921875,153.89312977099237
15:15:01.703000,-0.083160400390625,164.8854961832061
15:15:01.704000,-0.09918212890625,164.8854961832061
15:15:01.705000,-0.055694580078125,164.8854961832061
15:15:01.706000,0.0392913818359375,164.8854961832061
15:15:01.725000,0.1232147216796875,164.8854961832061
15:15:01.726000,0.13275146484375,164.8854961832061
15:15:01.727000,0.0888824462890625,164.8854961832061
15:15:01.728000,0.05035400390625,164.8854961832061
15:15:01.729000,0.034332275390625,164.8854961832061
15:15:01.730000,0.0362396240234375,164.8854961832061
15:15:01.730000,0.0507354736328125,164.8854961832061
15:15:01.731000,0.0560760498046875,164.8854961832061
15:15:01.732000,0.0213623046875,164.8854961832061
15:15:01.733000,-0.032806396484375,164.8854961832061
15:15:01.733000,-0.0461578369140625,164.8854961832061
15:15:01.734000,-0.040435791015625,164.8854961832061
15:15:01.838000,-0.06103515625,164.8854961832061
15:15:01.840000,-0.0980377197265625,164.8854961832061
15:15:01.841000,-0.1209259033203125,164.8854961832061
15:15:01.842000,-0.1186370849609375,164.8854961832061
15:15:01.843000,-0.1117706298828125,164.8854961832061
15:15:01.844000,-0.099945068359375,164.8854961832061
15:15:01.846000,-0.0766754150390625,164.8854961832061
15:15:01.846000,-0.0682830810546875,164.8854961832061
15:15:01.847000,-0.10528564453125,164.8854961832061
15:15:01.848000,-0.164794921875,164.8854961832061
15:15:01.849000,-0.189208984375,164.8854961832061
15:15:01.849000,-0.182342529296875,164.8854961832061
15:15:01.850000,-0.1621246337890625,164.8854961832061
15:15:01.851000,-0.11749267578125,164.8854961832061
15:15:01.852000,-0.0576019287109375,164.8854961832061
15:15:01.852000,-0.017547607421875,164.8854961832061
15:15:01.958000,-0.020599365234375,164.8854961832061
15:15:01.959000,-0.0400543212890625,164.8854961832061
15:15:01.959000,-0.03204345703125,164.8854961832061
15:15:01.960000,-0.0110626220703125,164.8854961832061
15:15:01.961000,-0.0110626220703125,164.8854961832061
15:15:01.962000,-0.03662109375,164.8854961832061
15:15:01.962000,-0.04119873046875,164.8854961832061
15:15:01.963000,-0.0125885009765625,164.8854961832061
15:15:01.964000,0.0179290771484375,164.8854961832061
15:15:01.964000,0.0240325927734375,164.8854961832061
15:15:01.965000,0.006866455078125,164.8854961832061
15:15:01.966000,-0.0091552734375,164.8854961832061
15:15:01.967000,-0.003814697265625,164.8854961832061
15:15:01.967000,0.005340576171875,164.8854961832061
15:15:01.968000,0.01220703125,164.8854961832061
15:15:01.969000,0.0141143798828125,164.8854961832061
15:15:02.094000,0.01983642578125,164.8854961832061
15:15:02.096000,0.0385284423828125,164.8854961832061
15:15:02.097000,0.0659942626953125,164.8854961832061
15:15:02.098000,0.078582763671875,164.8854961832061
15:15:02.100000,0.058746337890625,164.8854961832061
15:15:02.102000,0.0335693359375,164.8854961832061
15:15:02.103000,0.04119873046875,164.8854961832061
15:15:02.104000,0.0812530517578125,164.8854961832061
15:15:02.105000,0.1102447509765625,164.8854961832061
15:15:02.106000,0.090789794921875,164.8854961832061
15:15:02.107000,0.0209808349609375,164.8854961832061
15:15:02.108000,-0.0576019287109375,164.8854961832061
15:15:02.109000,-0.09765625,164.8854961832061
15:15:02.110000,-0.0949859619140625,164.8854961832061
15:15:02.111000,-0.0835418701171875,164.8854961832061
15:15:02.111000,-0.0812530517578125,164.8854961832061
15:15:02.213000,-0.0690460205078125,164.8854961832061
15:15:02.215000,-0.0530242919921875,164.8854961832061
15:15:02.216000,-0.048065185546875,164.8854961832061
15:15:02.218000,-0.03662109375,164.8854961832061
15:15:02.219000,-0.01678466796875,164.8854961832061
15:15:02.220000,-0.00457763671875,164.8854961832061
15:15:02.220000,-0.0072479248046875,164.8854961832061
15:15:02.221000,-0.0438690185546875,164.8854961832061
15:15:02.222000,-0.0865936279296875,164.8854961832061
15:15:02.223000,-0.10223388671875,164.8854961832061
15:15:02.225000,-0.1056671142578125,164.8854961832061
15:15:02.225000,-0.017547607421875,164.8854961832061
15:15:02.226000,0.2635955810546875,164.8854961832061
15:15:02.227000,0.63018798828125,164.8854961832061
15:15:02.228000,0.8075714111328125,164.8854961832061
15:15:02.229000,0.6221771240234375,164.8854961832061
15:15:02.334000,0.2117156982421875,164.8854961832061
15:15:02.335000,-0.1056671142578125,164.8854961832061
15:15:02.336000,-0.1453399658203125,164.8854961832061
15:15:02.337000,-0.0514984130859375,164.8854961832061
15:15:02.338000,-0.04119873046875,164.8854961832061
15:15:02.339000,-0.102996826171875,164.8854961832061
15:15:02.340000,-0.1399993896484375,164.8854961832061
15:15:02.341000,-0.1255035400390625,164.8854961832061
15:15:02.342000,-0.106048583984375,164.8854961832061
15:15:02.343000,-0.1194000244140625,164.8854961832061
15:15:02.343000,-0.1148223876953125,164.8854961832061
15:15:02.344000,-0.069427490234375,164.8854961832061
15:15:02.345000,-0.0579833984375,164.8854961832061
15:15:02.346000,-0.118255615234375,164.8854961832061
15:15:02.347000,-0.16937255859375,164.8854961832061
15:15:02.347000,-0.146484375,164.8854961832061
15:15:02.453000,-0.10986328125,164.8854961832061
15:15:02.454000,-0.1399993896484375,164.8854961832061
15:15:02.455000,-0.19683837890625,164.8854961832061
15:15:02.456000,-0.2101898193359375,164.8854961832061
15:15:02.456000,-0.1880645751953125,164.8854961832061
15:15:02.457000,-0.1880645751953125,164.8854961832061
15:15:02.458000,-0.2155303955078125,164.8854961832061
15:15:02.458000,-0.2094268798828125,164.8854961832061
15:15:02.459000,-0.154876708984375,164.8854961832061
15:15:02.460000,-0.1209259033203125,164.8854961832061
15:15:02.460000,-0.1312255859375,164.8854961832061
15:15:02.461000,-0.1190185546875,164.8854961832061
15:15:02.461000,-0.063323974609375,164.8854961832061
15:15:02.462000,-0.0217437744140625,164.8854961832061
15:15:02.462000,-0.017547607421875,164.8854961832061
15:15:02.463000,-0.0202178955078125,164.8854961832061
15:15:02.589000,-0.0171661376953125,164.8854961832061
15:15:02.590000,-0.02593994140625,164.8854961832061
15:15:02.591000,-0.0823974609375,164.8854961832061
15:15:02.591000,-0.1552581787109375,164.8854961832061
15:15:02.592000,-0.1865386962890625,164.8854961832061
15:15:02.593000,-0.164794921875,164.8854961832061
15:15:02.593000,-0.1068115234375,164.8854961832061
15:15:02.594000,-0.04119873046875,164.8854961832061
15:15:02.594000,-0.0133514404296875,164.8854961832061
15:15:02.595000,-0.05645751953125,164.8854961832061
15:15:02.595000,-0.1201629638671875,164.8854961832061
15:15:02.596000,-0.1270294189453125,164.8854961832061
15:15:02.597000,-0.08544921875,164.8854961832061
15:15:02.597000,-0.0652313232421875,164.8854961832061
15:15:02.598000,-0.1293182373046875,164.8854961832061
15:15:02.598000,-0.2422332763671875,164.8854961832061
15:15:02.709000,-0.3078460693359375,164.8854961832061
15:15:02.711000,-0.3082275390625,164.8854961832061
15:15:02.712000,-0.2620697021484375,164.8854961832061
15:15:02.713000,-0.193023681640625,164.8854961832061
15:15:02.714000,-0.1377105712890625,164.8854961832061
15:15:02.715000,-0.1293182373046875,164.8854961832061
15:15:02.716000,-0.15716552734375,164.8854961832061
15:15:02.717000,-0.167083740234375,164.8854961832061
15:15:02.718000,-0.1056671142578125,164.8854961832061
15:15:02.719000,-0.0171661376953125,164.8854961832061
15:15:02.720000,0.040435791015625,164.8854961832061
15:15:02.721000,0.0614166259765625,164.8854961832061
15:15:02.722000,0.06103515625,164.8854961832061
15:15:02.723000,0.016021728515625,164.8854961832061
15:15:02.723000,-0.0797271728515625,164.8854961832061
15:15:02.724000,-0.1522064208984375,164.8854961832061
15:15:02.828000,-0.147247314453125,164.8854961832061
15:15:02.828000,-0.090789794921875,164.8854961832061
15:15:02.829000,-0.0400543212890625,164.8854961832061
15:15:02.830000,-0.03662109375,164.8854961832061
15:15:02.830000,-0.0377655029296875,164.8854961832061
15:15:02.831000,-0.00762939453125,164.8854961832061
15:15:02.831000,0.0484466552734375,164.8854961832061
15:15:02.832000,0.1071929931640625,164.8854961832061
15:15:02.833000,0.133514404296875,164.8854961832061
15:15:02.833000,0.10528564453125,164.8854961832061
15:15:02.834000,0.014495849609375,164.8854961832061
15:15:02.835000,-0.07171630859375,164.8854961832061
15:15:02.835000,-0.0782012939453125,164.8854961832061
15:15:02.836000,-0.0213623046875,164.8854961832061
15:15:02.836000,0.0354766845703125,164.8854961832061
15:15:02.837000,0.026702880859375,164.8854961832061
15:15:02.964000,0.060272216796875,164.8854961832061
15:15:02.965000,0.3406524658203125,164.8854961832061
15:15:02.967000,0.787353515625,164.8854961832061
15:15:02.968000,1.026153564453125,164.8854961832061
15:15:02.969000,0.81024169921875,164.8854961832061
15:15:02.970000,0.3173828125,164.8854961832061
15:15:02.971000,-0.0736236572265625,164.8854961832061
15:15:02.972000,-0.2017974853515625,164.8854961832061
15:15:02.973000,-0.1800537109375,164.8854961832061
15:15:02.974000,-0.1773834228515625,164.8854961832061
15:15:02.976000,-0.188446044921875,164.8854961832061
15:15:02.977000,-0.1850128173828125,164.8854961832061
15:15:02.979000,-0.205230712890625,164.8854961832061
15:15:02.980000,-0.234222412109375,164.8854961832061
15:15:02.981000,-0.235748291015625,164.8854961832061
15:15:02.982000,-0.2101898193359375,164.8854961832061
15:15:03.083000,-0.1842498779296875,153.89312977099237
15:15:03.084000,-0.1773834228515625,153.89312977099237
15:15:03.085000,-0.1972198486328125,153.89312977099237
15:15:03.086000,-0.2437591552734375,153.89312977099237
15:15:03.087000,-0.2925872802734375,153.89312977099237
15:15:03.087000,-0.3124237060546875,153.89312977099237
15:15:03.088000,-0.2971649169921875,153.89312977099237
15:15:03.089000,-0.2689361572265625,153.89312977099237
15:15:03.089000,-0.249481201171875,153.89312977099237
15:15:03.090000,-0.214385986328125,153.89312977099237
15:15:03.091000,-0.13275146484375,153.89312977099237
15:15:03.092000,-0.0293731689453125,153.89312977099237
15:15:03.092000,0.025177001953125,153.89312977099237
15:15:03.093000,0.0125885009765625,153.89312977099237
15:15:03.094000,0.002288818359375,153.89312977099237
15:15:03.095000,0.0377655029296875,153.89312977099237
15:15:03.204000,0.07781982421875,163.80182002022246
15:15:03.205000,0.069427490234375,163.80182002022246
15:15:03.206000,0.029754638671875,163.80182002022246
15:15:03.207000,-0.0026702880859375,163.80182002022246
15:15:03.208000,-0.0278472900390625,163.80182002022246
15:15:03.209000,-0.0782012939453125,163.80182002022246
15:15:03.210000,-0.176239013671875,163.80182002022246
15:15:03.211000,-0.266265869140625,163.80182002022246
15:15:03.212000,-0.29449462890625,163.80182002022246
15:15:03.212000,-0.2819061279296875,163.80182002022246
15:15:03.213000,-0.25634765625,163.80182002022246
15:15:03.213000,-0.2086639404296875,163.80182002022246
15:15:03.214000,-0.1544952392578125,163.80182002022246
15:15:03.215000,-0.1171112060546875,163.80182002022246
15:15:03.215000,-0.1087188720703125,163.80182002022246
15:15:03.216000,-0.12664794921875,163.80182002022246
15:15:03.338000,-0.14495849609375,153.89312977099237
15:15:03.340000,-0.1224517822265625,153.89312977099237
15:15:03.341000,-0.0812530517578125,153.89312977099237
15:15:03.342000,-0.0507354736328125,153.89312977099237
15:15:03.343000,-0.0133514404296875,153.89312977099237
15:15:03.345000,0.0091552734375,153.89312977099237
15:15:03.346000,-0.01373291015625,153.89312977099237
15:15:03.347000,-0.0431060791015625,153.89312977099237
15:15:03.348000,-0.0583648681640625,153.89312977099237
15:15:03.348000,-0.0843048095703125,153.89312977099237
15:15:03.349000,-0.130462646484375,153.89312977099237
15:15:03.350000,-0.171661376953125,153.89312977099237
15:15:03.351000,-0.1712799072265625,153.89312977099237
15:15:03.352000,-0.109100341796875,153.89312977099237
15:15:03.352000,-0.0324249267578125,153.89312977099237
15:15:03.353000,-0.00152587890625,153.89312977099237
15:15:03.459000,-0.0118255615234375,153.89312977099237
15:15:03.460000,-0.0354766845703125,153.89312977099237
15:15:03.461000,-0.0507354736328125,153.89312977099237
15:15:03.462000,-0.04730224609375,153.89312977099237
15:15:03.463000,-0.0232696533203125,153.89312977099237
15:15:03.463000,-0.011444091796875,153.89312977099237
15:15:03.464000,-0.034332275390625,153.89312977099237
15:15:03.465000,-0.0743865966796875,153.89312977099237
15:15:03.465000,-0.06561279296875,153.89312977099237
15:15:03.466000,0.014495849609375,153.89312977099237
15:15:03.467000,0.0858306884765625,153.89312977099237
15:15:03.467000,0.058746337890625,153.89312977099237
15:15:03.468000,-0.0377655029296875,153.89312977099237
15:15:03.469000,-0.1087188720703125,153.89312977099237
15:15:03.469000,-0.091552734375,153.89312977099237
15:15:03.470000,-0.0286102294921875,153.89312977099237
15:15:03.587000,0.0091552734375,153.89312977099237
15:15:03.589000,0.009918212890625,153.89312977099237
15:15:03.591000,-0.0148773193359375,153.89312977099237
15:15:03.592000,-0.0705718994140625,153.89312977099237
15:15:03.593000,-0.14190673828125,153.89312977099237
15:15:03.594000,-0.17852783203125,153.89312977099237
15:15:03.595000,-0.179290771484375,153.89312977099237
15:15:03.596000,-0.0614166259765625,153.89312977099237
15:15:03.596000,0.304412841796875,153.89312977099237
15:15:03.597000,0.7991790771484375,153.89312977099237
15:15:03.598000,1.0467529296875,153.89312977099237
15:15:03.598000,0.8136749267578125,153.89312977099237
15:15:03.599000,0.2899169921875,153.89312977099237
15:15:03.600000,-0.1285552978515625,153.89312977099237
15:15:03.601000,-0.25177001953125,153.89312977099237
15:15:03.601000,-0.213623046875,153.89312977099237
15:15:03.713000,-0.19073486328125,163.80182002022246
15:15:03.714000,-0.1911163330078125,163.80182002022246
15:15:03.715000,-0.188446044921875,163.80182002022246
15:15:03.716000,-0.180816650390625,163.80182002022246
15:15:03.718000,-0.1270294189453125,163.80182002022246
15:15:03.719000,-0.0469207763671875,163.80182002022246
15:15:03.720000,-0.0095367431640625,163.80182002022246
15:15:03.721000,-0.0461578369140625,163.80182002022246
15:15:03.722000,-0.11138916015625,163.80182002022246
15:15:03.723000,-0.13427734375,163.80182002022246
15:15:03.724000,-0.0946044921875,163.80182002022246
15:15:03.724000,-0.042724609375,163.80182002022246
15:15:03.725000,-0.0225067138671875,163.80182002022246
15:15:03.726000,-0.014495849609375,163.80182002022246
15:15:03.727000,0.0156402587890625,163.80182002022246
15:15:03.728000,0.0377655029296875,163.80182002022246
15:15:03.833000,0.02288818359375,163.80182002022246
15:15:03.834000,0.0095367431640625,163.80182002022246
15:15:03.835000,0.03509521484375,163.80182002022246
15:15:03.836000,0.0629425048828125,163.80182002022246
15:15:03.837000,0.0213623046875,163.80182002022246
15:15:03.837000,-0.078582763671875,163.80182002022246
15:15:03.838000,-0.1285552978515625,163.80182002022246
15:15:03.839000,-0.0732421875,163.80182002022246
15:15:03.839000,0.003814697265625,163.80182002022246
15:15:03.840000,0.0274658203125,163.80182002022246
15:15:03.841000,0.003814697265625,163.80182002022246
15:15:03.841000,-0.0396728515625,163.80182002022246
15:15:03.842000,-0.0904083251953125,163.80182002022246
15:15:03.843000,-0.12054443359375,163.80182002022246
15:15:03.843000,-0.1071929931640625,163.80182002022246
15:15:03.844000,-0.09002685546875,163.80182002022246
15:15:03.960000,-0.09002685546875,163.80182002022246
15:15:03.961000,-0.089263916015625,163.80182002022246
15:15:03.962000,-0.066375732421875,163.80182002022246
15:15:03.964000,-0.005340576171875,163.80182002022246
15:15:03.966000,0.0453948974609375,163.80182002022246
15:15:03.967000,0.0354766845703125,163.80182002022246
15:15:03.968000,-0.0095367431640625,163.80182002022246
15:15:03.969000,-0.022125244140625,163.80182002022246
15:15:03.970000,-0.002288818359375,163.80182002022246
15:15:03.971000,-0.01678466796875,163.80182002022246
15:15:03.972000,-0.0659942626953125,163.80182002022246
15:15:03.973000,-0.092315673828125,163.80182002022246
15:15:03.973000,-0.0621795654296875,163.80182002022246
15:15:03.974000,-0.0225067138671875,163.80182002022246
15:15:03.975000,-0.0370025634765625,163.80182002022246
15:15:03.975000,-0.0690460205078125,163.80182002022246
15:15:04.089000,-0.04730224609375,163.80182002022246
15:15:04.090000,-0.002288818359375,163.80182002022246
15:15:04.091000,-0.01678466796875,163.80182002022246
15:15:04.091000,-0.078582763671875,163.80182002022246
15:15:04.093000,-0.10528564453125,163.80182002022246
15:15:04.093000,-0.0827789306640625,163.80182002022246
15:15:04.094000,-0.046539306640625,163.80182002022246
15:15:04.095000,-0.0091552734375,163.80182002022246
15:15:04.096000,0.0102996826171875,163.80182002022246
15:15:04.096000,-0.0011444091796875,163.80182002022246
15:15:04.097000,-0.0278472900390625,163.80182002022246
15:15:04.097000,-0.03509521484375,163.80182002022246
15:15:04.098000,0.008392333984375,163.80182002022246
15:15:04.099000,0.0797271728515625,163.80182002022246
15:15:04.100000,0.1056671142578125,163.80182002022246
15:15:04.101000,0.0579833984375,163.80182002022246
15:15:04.216000,-0.0034332275390625,163.80182002022246
15:15:04.217000,-0.0156402587890625,163.80182002022246
15:15:04.218000,0.00762939453125,163.80182002022246
15:15:04.219000,0.018310546875,163.80182002022246
15:15:04.220000,-0.019073486328125,163.80182002022246
15:15:04.221000,-0.0873565673828125,163.80182002022246
15:15:04.222000,-0.1270294189453125,163.80182002022246
15:15:04.223000,-0.1434326171875,163.80182002022246
15:15:04.224000,-0.1613616943359375,163.80182002022246
15:15:04.225000,-0.1644134521484375,163.80182002022246
15:15:04.226000,-0.15106201171875,163.80182002022246
15:15:04.227000,-0.1094818115234375,163.80182002022246
15:15:04.228000,-0.0324249267578125,163.80182002022246
15:15:04.229000,0.04730224609375,163.80182002022246
15:15:04.229000,0.1171112060546875,163.80182002022246
15:15:04.230000,0.136566162109375,163.80182002022246
15:15:04.340000,0.1094818115234375,163.80182002022246
15:15:04.341000,0.2338409423828125,163.80182002022246
15:15:04.342000,0.583648681640625,163.80182002022246
15:15:04.343000,0.8983612060546875,163.80182002022246
15:15:04.344000,0.8312225341796875,163.80182002022246
15:15:04.345000,0.372314453125,163.80182002022246
15:15:04.346000,-0.1262664794921875,163.80182002022246
15:15:04.347000,-0.354766845703125,163.80182002022246
15:15:04.348000,-0.3322601318359375,163.80182002022246
15:15:04.350000,-0.29144287109375,163.80182002022246
15:15:04.351000,-0.31890869140625,163.80182002022246
15:15:04.352000,-0.315093994140625,163.80182002022246
15:15:04.353000,-0.2567291259765625,163.80182002022246
15:15:04.354000,-0.1789093017578125,163.80182002022246
15:15:04.355000,-0.136566162109375,163.80182002022246
15:15:04.356000,-0.1453399658203125,163.80182002022246
15:15:04.463000,-0.146484375,164.8854961832061
15:15:04.464000,-0.1251220703125,164.8854961832061
15:15:04.465000,-0.1132965087890625,164.8854961832061
15:15:04.466000,-0.13427734375,164.8854961832061
15:15:04.467000,-0.1617431640625,164.8854961832061
15:15:04.468000,-0.15716552734375,164.8854961832061
15:15:04.469000,-0.1598358154296875,164.8854961832061
15:15:04.470000,-0.1926422119140625,164.8854961832061
15:15:04.471000,-0.2094268798828125,164.8854961832061
15:15:04.472000,-0.18310546875,164.8854961832061
15:15:04.472000,-0.1140594482421875,164.8854961832061
15:15:04.473000,-0.0446319580078125,164.8854961832061
15:15:04.474000,-0.0156402587890625,164.8854961832061
15:15:04.475000,-0.0293731689453125,164.8854961832061
15:15:04.475000,-0.0614166259765625,164.8854961832061
15:15:04.476000,-0.08544921875,164.8854961832061
15:15:04.599000,-0.10528564453125,164.8854961832061
15:15:04.600000,-0.1163482666015625,164.8854961832061
15:15:04.601000,-0.133514404296875,164.8854961832061
15:15:04.603000,-0.1617431640625,164.8854961832061
15:15:04.604000,-0.176239013671875,164.8854961832061
15:15:04.606000,-0.1804351806640625,164.8854961832061
15:15:04.606000,-0.19073486328125,164.8854961832061
15:15:04.607000,-0.2109527587890625,164.8854961832061
15:15:04.608000,-0.2490997314453125,164.8854961832061
15:15:04.609000,-0.29144287109375,164.8854961832061
15:15:04.609000,-0.319671630859375,164.8854961832061
15:15:04.610000,-0.3223419189453125,164.8854961832061
15:15:04.611000,-0.305938720703125,164.8854961832061
15:15:04.612000,-0.272369384765625,164.8854961832061
15:15:04.612000,-0.20599365234375,164.8854961832061
15:15:04.613000,-0.128173828125,164.8854961832061
15:15:04.710000,-0.0972747802734375,164.8854961832061
15:15:04.712000,-0.1346588134765625,164.8854961832061
15:15:04.713000,-0.177001953125,164.8854961832061
15:15:04.714000,-0.1621246337890625,164.8854961832061
15:15:04.715000,-0.1007080078125,164.8854961832061
15:15:04.716000,-0.054168701171875,164.8854961832061
15:15:04.717000,-0.0499725341796875,164.8854961832061
15:15:04.718000,-0.043487548828125,164.8854961832061
15:15:04.719000,0.0133514404296875,164.8854961832061
15:15:04.719000,0.0865936279296875,164.8854961832061
15:15:04.720000,0.1190185546875,164.8854961832061
15:15:04.721000,0.109100341796875,164.8854961832061
15:15:04.722000,0.0823974609375,164.8854961832061
15:15:04.723000,0.0324249267578125,164.8854961832061
15:15:04.724000,-0.0347137451171875,164.8854961832061
15:15:04.724000,-0.093841552734375,164.8854961832061
15:15:04.838000,-0.125885009765625,164.8854961832061
15:15:04.839000,-0.135040283203125,164.8854961832061
15:15:04.840000,-0.1434326171875,164.8854961832061
15:15:04.841000,-0.154876708984375,164.8854961832061
15:15:04.842000,-0.1537322998046875,164.8854961832061
15:15:04.842000,-0.173187255859375,164.8854961832061
15:15:04.843000,-0.2376556396484375,164.8854961832061
15:15:04.844000,-0.27923583984375,164.8854961832061
15:15:04.845000,-0.23651123046875,164.8854961832061
15:15:04.846000,-0.1598358154296875,164.8854961832061
15:15:04.846000,-0.113677978515625,164.8854961832061
15:15:04.847000,-0.0820159912109375,164.8854961832061
15:15:04.848000,-0.006103515625,164.8854961832061
15:15:04.849000,0.0858306884765625,164.8854961832061
15:15:04.850000,0.119781494140625,164.8854961832061
15:15:04.851000,0.0873565673828125,164.8854961832061
15:15:04.958000,0.052642822265625,164.8854961832061
15:15:04.959000,0.0537872314453125,164.8854961832061
15:15:04.960000,0.0804901123046875,164.8854961832061
15:15:04.961000,0.1026153564453125,164.8854961832061
15:15:04.962000,0.1129150390625,164.8854961832061
15:15:04.963000,0.13275146484375,164.8854961832061
15:15:04.964000,0.1605987548828125,164.8854961832061
15:15:04.965000,0.1758575439453125,164.8854961832061
15:15:04.966000,0.160980224609375,164.8854961832061
15:15:04.967000,0.1186370849609375,164.8854961832061
15:15:04.968000,0.07476806640625,164.8854961832061
15:15:04.968000,0.05645751953125,164.8854961832061
15:15:04.969000,0.0553131103515625,164.8854961832061
15:15:04.970000,0.04730224609375,164.8854961832061
15:15:04.971000,0.048828125,164.8854961832061
15:15:04.971000,0.0675201416015625,164.8854961832061
15:15:05.084000,0.0720977783203125,164.8854961832061
15:15:05.085000,0.0606536865234375,164.8854961832061
15:15:05.086000,0.040435791015625,164.8854961832061
15:15:05.086000,0.0217437744140625,164.8854961832061
15:15:05.087000,0.0064849853515625,164.8854961832061
15:15:05.087000,0.0,164.8854961832061
15:15:05.088000,0.0446319580078125,164.8854961832061
15:15:05.089000,0.1102447509765625,164.8854961832061
15:15:05.089000,0.151824951171875,164.8854961832061
15:15:05.090000,0.152587890625,164.8854961832061
15:15:05.090000,0.1026153564453125,164.8854961832061
15:15:05.091000,0.1499176025390625,164.8854961832061
15:15:05.092000,0.4467010498046875,164.8854961832061
15:15:05.092000,0.823974609375,164.8854961832061
15:15:05.093000,0.908660888671875,164.8854961832061
15:15:05.093000,0.572967529296875,164.8854961832061
15:15:05.213000,0.0926971435546875,164.8854961832061
15:15:05.214000,-0.20294189453125,164.8854961832061
15:15:05.216000,-0.2376556396484375,164.8854961832061
15:15:05.217000,-0.2017974853515625,164.8854961832061
15:15:05.218000,-0.2292633056640625,164.8854961832061
15:15:05.219000,-0.2353668212890625,164.8854961832061
15:15:05.219000,-0.1953125,164.8854961832061
15:15:05.220000,-0.1499176025390625,164.8854961832061
15:15:05.221000,-0.095367431640625,164.8854961832061
15:15:05.222000,-0.035858154296875,164.8854961832061
15:15:05.223000,0.0202178955078125,164.8854961832061
15:15:05.223000,0.0530242919921875,164.8854961832061
15:15:05.224000,0.03509521484375,164.8854961832061
15:15:05.225000,-0.0308990478515625,164.8854961832061
15:15:05.225000,-0.0827789306640625,164.8854961832061
15:15:05.226000,-0.075531005859375,164.8854961832061
15:15:05.334000,-0.067138671875,164.8854961832061
15:15:05.336000,-0.13275146484375,164.8854961832061
15:15:05.338000,-0.2349853515625,164.8854961832061
15:15:05.339000,-0.2651214599609375,164.8854961832061
15:15:05.340000,-0.1911163330078125,164.8854961832061
15:15:05.341000,-0.0835418701171875,164.8854961832061
15:15:05.342000,-0.011444091796875,164.8854961832061
15:15:05.343000,0.0110626220703125,164.8854961832061
15:15:05.345000,0.016021728515625,164.8854961832061
15:15:05.346000,0.028228759765625,164.8854961832061
15:15:05.346000,0.01373291015625,164.8854961832061
15:15:05.347000,-0.0270843505859375,164.8854961832061
15:15:05.348000,-0.0530242919921875,164.8854961832061
15:15:05.349000,-0.0507354736328125,164.8854961832061
15:15:05.350000,-0.0476837158203125,164.8854961832061
15:15:05.351000,-0.048065185546875,164.8854961832061
15:15:05.462000,-0.0522613525390625,164.8854961832061
15:15:05.463000,-0.0568389892578125,164.8854961832061
15:15:05.464000,-0.0522613525390625,164.8854961832061
15:15:05.465000,-0.067138671875,164.8854961832061
15:15:05.466000,-0.1232147216796875,164.8854961832061
15:15:05.467000,-0.177001953125,164.8854961832061
15:15:05.468000,-0.1983642578125,164.8854961832061
15:15:05.469000,-0.1800537109375,164.8854961832061
15:15:05.470000,-0.1209259033203125,164.8854961832061
15:15:05.471000,-0.0537872314453125,164.8854961832061
15:15:05.472000,-0.0080108642578125,164.8854961832061
15:15:05.473000,-0.0034332275390625,164.8854961832061
15:15:05.474000,-0.0553131103515625,164.8854961832061
15:15:05.475000,-0.113677978515625,164.8854961832061
15:15:05.476000,-0.0957489013671875,164.8854961832061
15:15:05.476000,0.0034332275390625,164.8854961832061
15:15:05.590000,0.086212158203125,164.8854961832061
15:15:05.592000,0.0988006591796875,164.8854961832061
15:15:05.593000,0.078582763671875,164.8854961832061
15:15:05.593000,0.0762939453125,164.8854961832061
15:15:05.594000,0.09765625,164.8854961832061
15:15:05.595000,0.1087188720703125,164.8854961832061
15:15:05.596000,0.1132965087890625,164.8854961832061
15:15:05.597000,0.1354217529296875,164.8854961832061
15:15:05.597000,0.141143798828125,164.8854961832061
15:15:05.598000,0.107574462890625,164.8854961832061
15:15:05.599000,0.057220458984375,164.8854961832061
15:15:05.600000,0.017547607421875,164.8854961832061
15:15:05.601000,-0.008392333984375,164.8854961832061
15:15:05.601000,-0.031280517578125,164.8854961832061
15:15:05.602000,-0.0301361083984375,164.8854961832061
15:15:05.603000,-0.0133514404296875,164.8854961832061
15:15:05.708000,-0.01220703125,164.8854961832061
15:15:05.710000,-0.016021728515625,164.8854961832061
15:15:05.711000,0.0003814697265625,164.8854961832061
15:15:05.712000,0.012969970703125,164.8854961832061
15:15:05.713000,0.0072479248046875,164.8854961832061
15:15:05.714000,-0.0064849853515625,164.8854961832061
15:15:05.714000,0.014495849609375,164.8854961832061
15:15:05.715000,0.083160400390625,164.8854961832061
15:15:05.716000,0.1514434814453125,164.8854961832061
15:15:05.717000,0.173187255859375,164.8854961832061
15:15:05.718000,0.174713134765625,164.8854961832061
15:15:05.718000,0.174713134765625,164.8854961832061
15:15:05.719000,0.1422882080078125,164.8854961832061
15:15:05.720000,0.093841552734375,164.8854961832061
15:15:05.721000,0.080108642578125,164.8854961832061
15:15:05.721000,0.1026153564453125,164.8854961832061
15:15:05.839000,0.1300811767578125,164.8854961832061
15:15:05.841000,0.11749267578125,164.8854961832061
15:15:05.842000,0.079345703125,164.8854961832061
15:15:05.843000,0.0698089599609375,164.8854961832061
15:15:05.844000,0.0576019287109375,164.8854961832061
15:15:05.844000,0.0072479248046875,164.8854961832061
15:15:05.845000,-0.035858154296875,164.8854961832061
15:15:05.846000,-0.042724609375,164.8854961832061
15:15:05.847000,-0.0278472900390625,164.8854961832061
15:15:05.848000,0.0164031982421875,164.8854961832061
15:15:05.849000,0.06256103515625,164.8854961832061
15:15:05.850000,0.07476806640625,164.8854961832061
15:15:05.851000,0.0530242919921875,164.8854961832061
15:15:05.852000,-0.00152587890625,164.8854961832061
15:15:05.853000,-0.07171630859375,164.8854961832061
15:15:05.854000,-0.1262664794921875,164.8854961832061
15:15:05.964000,-0.1506805419921875,164.8854961832061
15:15:05.966000,-0.1216888427734375,164.8854961832061
15:15:05.967000,-0.0324249267578125,164.8854961832061
15:15:05.968000,0.0484466552734375,164.8854961832061
15:15:05.970000,0.0698089599609375,164.8854961832061
15:15:05.971000,0.040435791015625,164.8854961832061
15:15:05.972000,0.0,164.8854961832061
15:15:05.973000,-0.005340576171875,164.8854961832061
15:15:05.975000,-0.0026702880859375,164.8854961832061
15:15:05.976000,0.0774383544921875,164.8854961832061
15:15:05.977000,0.3841400146484375,164.8854961832061
15:15:05.978000,0.786590576171875,164.8854961832061
15:15:05.979000,0.90179443359375,164.8854961832061
15:15:05.979000,0.53558349609375,164.8854961832061
15:15:05.980000,-0.0415802001953125,164.8854961832061
15:15:05.981000,-0.3711700439453125,164.8854961832061
15:15:06.083000,-0.33111572265625,164.8854961832061
15:15:06.084000,-0.189971923828125,164.8854961832061
15:15:06.085000,-0.1712799072265625,164.8854961832061
15:15:06.086000,-0.201416015625,164.8854961832061
15:15:06.087000,-0.197601318359375,164.8854961832061
15:15:06.088000,-0.1895904541015625,164.8854961832061
15:15:06.089000,-0.1861572265625,164.8854961832061
15:15:06.090000,-0.189208984375,164.8854961832061
15:15:06.091000,-0.1865386962890625,164.8854961832061
15:15:06.092000,-0.1758575439453125,164.8854961832061
15:15:06.093000,-0.1964569091796875,164.8854961832061
15:15:06.093000,-0.25482177734375,164.8854961832061
15:15:06.094000,-0.311279296875,164.8854961832061
15:15:06.095000,-0.312042236328125,164.8854961832061
15:15:06.095000,-0.2506256103515625,164.8854961832061
15:15:06.096000,-0.188446044921875,164.8854961832061
15:15:06.206000,-0.1613616943359375,164.8854961832061
15:15:06.207000,-0.1285552978515625,164.8854961832061
15:15:06.208000,-0.069427490234375,164.8854961832061
15:15:06.209000,-0.0247955322265625,164.8854961832061
15:15:06.230000,-0.009918212890625,164.8854961832061
15:15:06.231000,0.0091552734375,164.8854961832061
15:15:06.232000,0.054168701171875,164.8854961832061
15:15:06.232000,0.078582763671875,164.8854961832061
15:15:06.233000,0.0469207763671875,164.8854961832061
15:15:06.234000,0.0072479248046875,164.8854961832061
15:15:06.234000,0.008392333984375,164.8854961832061
15:15:06.235000,0.0095367431640625,164.8854961832061
15:15:06.235000,-0.0324249267578125,164.8854961832061
15:15:06.236000,-0.0804901123046875,164.8854961832061
15:15:06.236000,-0.0766754150390625,164.8854961832061
15:15:06.237000,-0.05645751953125,164.8854961832061
15:15:06.338000,-0.075531005859375,164.8854961832061
15:15:06.340000,-0.1293182373046875,164.8854961832061
15:15:06.341000,-0.1636505126953125,164.8854961832061
15:15:06.342000,-0.128936767578125,164.8854961832061
15:15:06.343000,-0.0614166259765625,164.8854961832061
15:15:06.344000,-0.0232696533203125,164.8854961832061
15:15:06.345000,-0.03204345703125,164.8854961832061
15:15:06.345000,-0.0537872314453125,164.8854961832061
15:15:06.346000,-0.06256103515625,164.8854961832061
15:15:06.347000,-0.066375732421875,164.8854961832061
15:15:06.348000,-0.0759124755859375,164.8854961832061
15:15:06.348000,-0.075531005859375,164.8854961832061
15:15:06.349000,-0.034332275390625,164.8854961832061
15:15:06.350000,0.0274658203125,164.8854961832061
15:15:06.351000,0.0347137451171875,164.8854961832061
15:15:06.352000,-0.04425048828125,164.8854961832061
15:15:06.458000,-0.152587890625,164.8854961832061
15:15:06.459000,-0.2017974853515625,164.8854961832061
15:15:06.460000,-0.144195556640625,164.8854961832061
15:15:06.461000,-0.041961669921875,164.8854961832061
15:15:06.462000,0.0125885009765625,164.8854961832061
15:15:06.462000,0.0019073486328125,164.8854961832061
15:15:06.463000,-0.032806396484375,164.8854961832061
15:15:06.464000,-0.070953369140625,164.8854961832061
15:15:06.464000,-0.0904083251953125,164.8854961832061
15:15:06.465000,-0.07171630859375,164.8854961832061
15:15:06.466000,-0.0255584716796875,164.8854961832061
15:15:06.466000,0.022125244140625,164.8854961832061
15:15:06.467000,0.0457763671875,164.8854961832061
15:15:06.468000,0.022125244140625,164.8854961832061
15:15:06.469000,-0.0270843505859375,164.8854961832061
15:15:06.470000,-0.054931640625,164.8854961832061
15:15:06.588000,-0.04119873046875,164.8854961832061
15:15:06.589000,-0.003814697265625,164.8854961832061
15:15:06.590000,0.0255584716796875,164.8854961832061
15:15:06.591000,0.03662109375,164.8854961832061
15:15:06.592000,0.037384033203125,164.8854961832061
15:15:06.593000,0.0278472900390625,164.8854961832061
15:15:06.594000,-0.0057220458984375,164.8854961832061
15:15:06.594000,-0.02899169921875,164.8854961832061
15:15:06.595000,0.0110626220703125,164.8854961832061
15:15:06.596000,0.0713348388671875,164.8854961832061
15:15:06.597000,0.0576019287109375,164.8854961832061
15:15:06.598000,-0.028228759765625,164.8854961832061
15:15:06.598000,-0.10223388671875,164.8854961832061
15:15:06.599000,-0.10528564453125,164.8854961832061
15:15:06.600000,-0.064849853515625,164.8854961832061
15:15:06.601000,-0.057220458984375,164.8854961832061
15:15:06.713000,-0.0732421875,164.8854961832061
15:15:06.714000,-0.0484466552734375,164.8854961832061
15:15:06.715000,0.0225067138671875,164.8854961832061
15:15:06.715000,0.0705718994140625,164.8854961832061
15:15:06.716000,0.06256103515625,164.8854961832061
15:15:06.717000,0.03662109375,164.8854961832061
15:15:06.718000,0.0457763671875,164.8854961832061
15:15:06.718000,0.0701904296875,164.8854961832061
15:15:06.719000,0.0614166259765625,164.8854961832061
15:15:06.720000,0.017547607421875,164.8854961832061
15:15:06.720000,-0.018310546875,164.8854961832061
15:15:06.721000,-0.046539306640625,164.8854961832061
15:15:06.721000,-0.0720977783203125,164.8854961832061
15:15:06.722000,-0.0713348388671875,164.8854961832061
15:15:06.723000,-0.0331878662109375,164.8854961832061
15:15:06.724000,0.011444091796875,164.8854961832061
15:15:06.833000,0.02288818359375,164.8854961832061
15:15:06.835000,0.0270843505859375,164.8854961832061
15:15:06.836000,0.0614166259765625,164.8854961832061
15:15:06.837000,0.0804901123046875,164.8854961832061
15:15:06.838000,0.0949859619140625,164.8854961832061
15:15:06.838000,0.1277923583984375,164.8854961832061
15:15:06.839000,0.188446044921875,164.8854961832061
15:15:06.840000,0.4146575927734375,164.8854961832061
15:15:06.841000,0.8266448974609375,164.8854961832061
15:15:06.841000,1.151275634765625,164.8854961832061
15:15:06.842000,1.085662841796875,164.8854961832061
15:15:06.843000,0.64849853515625,164.8854961832061
15:15:06.843000,0.1781463623046875,164.8854961832061
15:15:06.844000,-0.0415802001953125,164.8854961832061
15:15:06.844000,-0.0522613525390625,164.8854961832061
15:15:06.845000,-0.0667572021484375,164.8854961832061
15:15:06.953000,-0.1201629638671875,164.8854961832061
15:15:06.954000,-0.127410888671875,164.8854961832061
15:15:06.955000,-0.1163482666015625,164.8854961832061
15:15:06.956000,-0.1003265380859375,164.8854961832061
15:15:06.956000,-0.0789642333984375,164.8854961832061
15:15:06.957000,-0.0865936279296875,164.8854961832061
15:15:06.958000,-0.0766754150390625,164.8854961832061
15:15:06.958000,-0.016021728515625,164.8854961832061
15:15:06.959000,0.0400543212890625,164.8854961832061
15:15:06.960000,0.034332275390625,164.8854961832061
15:15:06.960000,-0.0011444091796875,164.8854961832061
15:15:06.961000,0.0072479248046875,164.8854961832061
15:15:06.962000,0.042724609375,164.8854961832061
15:15:06.962000,0.0553131103515625,164.8854961832061
15:15:06.963000,0.045013427734375,164.8854961832061
15:15:06.963000,0.067138671875,164.8854961832061
15:15:07.089000,0.1514434814453125,164.8854961832061
15:15:07.090000,0.2246856689453125,164.8854961832061
15:15:07.091000,0.2246856689453125,164.8854961832061
15:15:07.092000,0.183868408203125,164.8854961832061
15:15:07.093000,0.1308441162109375,164.8854961832061
15:15:07.094000,0.072479248046875,164.8854961832061
15:15:07.094000,0.0270843505859375,164.8854961832061
15:15:07.095000,0.029754638671875,164.8854961832061
15:15:07.096000,0.0751495361328125,164.8854961832061
15:15:07.097000,0.12359619140625,164.8854961832061
15:15:07.097000,0.11749267578125,164.8854961832061
15:15:07.098000,0.0423431396484375,164.8854961832061
15:15:07.099000,-0.0446319580078125,164.8854961832061
15:15:07.099000,-0.106048583984375,164.8854961832061
15:15:07.100000,-0.154876708984375,164.8854961832061
15:15:07.101000,-0.1659393310546875,164.8854961832061
15:15:07.208000,-0.1277923583984375,164.8854961832061
15:15:07.209000,-0.074005126953125,164.8854961832061
15:15:07.210000,-0.0347137451171875,164.8854961832061
15:15:07.211000,-0.026702880859375,164.8854961832061
15:15:07.212000,-0.0492095947265625,164.8854961832061
15:15:07.213000,-0.0713348388671875,164.8854961832061
15:15:07.214000,-0.0629425048828125,164.8854961832061
15:15:07.214000,-0.0347137451171875,164.8854961832061
15:15:07.215000,-0.0225067138671875,164.8854961832061
15:15:07.216000,-0.0362396240234375,164.8854961832061
15:15:07.216000,-0.055694580078125,164.8854961832061
15:15:07.217000,-0.0507354736328125,164.8854961832061
15:15:07.218000,-0.0270843505859375,164.8854961832061
15:15:07.219000,-0.0156402587890625,164.8854961832061
15:15:07.219000,-0.0164031982421875,164.8854961832061
15:15:07.220000,-0.0293731689453125,164.8854961832061
15:15:07.343000,-0.067138671875,164.8854961832061
15:15:07.345000,-0.124359130859375,164.8854961832061
15:15:07.346000,-0.16937255859375,164.8854961832061
15:15:07.347000,-0.180816650390625,164.8854961832061
15:15:07.348000,-0.1743316650390625,164.8854961832061
15:15:07.349000,-0.1537322998046875,164.8854961832061
15:15:07.350000,-0.1308441162109375,164.8854961832061
15:15:07.351000,-0.13275146484375,164.8854961832061
15:15:07.353000,-0.1529693603515625,164.8854961832061
15:15:07.354000,-0.16937255859375,164.8854961832061
15:15:07.355000,-0.162506103515625,164.8854961832061
15:15:07.356000,-0.1434326171875,164.8854961832061
15:15:07.357000,-0.1132965087890625,164.8854961832061
15:15:07.358000,-0.0843048095703125,164.8854961832061
15:15:07.358000,-0.0995635986328125,164.8854961832061
15:15:07.359000,-0.15716552734375,164.8854961832061
15:15:07.464000,-0.167083740234375,164.8854961832061
15:15:07.465000,-0.091552734375,164.8854961832061
15:15:07.466000,-0.0225067138671875,164.8854961832061
15:15:07.467000,-0.055694580078125,164.8854961832061
15:15:07.468000,-0.1373291015625,164.8854961832061
15:15:07.468000,-0.1338958740234375,164.8854961832061
15:15:07.469000,-0.01678466796875,164.8854961832061
15:15:07.470000,0.0946044921875,164.8854961832061
15:15:07.471000,0.09307861328125,164.8854961832061
15:15:07.471000,0.012969970703125,164.8854961832061
15:15:07.472000,-0.0423431396484375,164.8854961832061
15:15:07.473000,-0.038909912109375,164.8854961832061
15:15:07.474000,-0.0270843505859375,164.8854961832061
15:15:07.474000,-0.048828125,164.8854961832061
15:15:07.475000,-0.069427490234375,164.8854961832061
15:15:07.476000,-0.037384033203125,164.8854961832061
15:15:07.583000,0.0247955322265625,164.8854961832061
15:15:07.584000,0.0591278076171875,164.8854961832061
15:15:07.585000,0.061798095703125,164.8854961832061
15:15:07.586000,0.07171630859375,164.8854961832061
15:15:07.587000,0.103759765625,164.8854961832061
15:15:07.587000,0.09765625,164.8854961832061
15:15:07.588000,0.064849853515625,164.8854961832061
15:15:07.589000,0.0644683837890625,164.8854961832061
15:15:07.590000,0.078582763671875,164.8854961832061
15:15:07.590000,0.189971923828125,164.8854961832061
15:15:07.591000,0.510406494140625,164.8854961832061
15:15:07.592000,0.88653564453125,164.8854961832061
15:15:07.593000,0.970458984375,164.8854961832061
15:15:07.593000,0.624847412109375,164.8854961832061
15:15:07.594000,0.1224517822265625,164.8854961832061
15:15:07.595000,-0.189971923828125,164.8854961832061
15:15:07.703000,-0.23651123046875,164.8854961832061
15:15:07.704000,-0.2117156982421875,164.8854961832061
15:15:07.705000,-0.2376556396484375,164.8854961832061
15:15:07.705000,-0.218963623046875,164.8854961832061
15:15:07.706000,-0.1605987548828125,164.8854961832061
15:15:07.707000,-0.1438140869140625,164.8854961832061
15:15:07.707000,-0.151824951171875,164.8854961832061
15:15:07.708000,-0.1483917236328125,164.8854961832061
15:15:07.709000,-0.09765625,164.8854961832061
15:15:07.710000,-0.006866455078125,164.8854961832061
15:15:07.711000,0.0629425048828125,164.8854961832061
15:15:07.712000,0.069427490234375,164.8854961832061
15:15:07.712000,0.017547607421875,164.8854961832061
15:15:07.713000,-0.0629425048828125,164.8854961832061
15:15:07.714000,-0.1384735107421875,164.8854961832061
15:15:07.714000,-0.177764892578125,164.8854961832061
15:15:07.841000,-0.1514434814453125,164.8854961832061
15:15:07.842000,-0.1117706298828125,164.8854961832061
15:15:07.842000,-0.1331329345703125,164.8854961832061
15:15:07.843000,-0.220489501953125,164.8854961832061
15:15:07.844000,-0.299835205078125,164.8854961832061
15:15:07.845000,-0.3002166748046875,164.8854961832061
15:15:07.845000,-0.237274169921875,164.8854961832061
15:15:07.846000,-0.1628875732421875,164.8854961832061
15:15:07.847000,-0.104522705078125,164.8854961832061
15:15:07.847000,-0.0701904296875,164.8854961832061
15:15:07.848000,-0.0583648681640625,164.8854961832061
15:15:07.849000,-0.0698089599609375,164.8854961832061
15:15:07.849000,-0.090789794921875,164.8854961832061
15:15:07.850000,-0.115966796875,164.8854961832061
15:15:07.851000,-0.1468658447265625,164.8854961832061
15:15:07.852000,-0.15869140625,164.8854961832061
15:15:07.958000,-0.142669677734375,164.8854961832061
15:15:07.959000,-0.1354217529296875,164.8854961832061
15:15:07.960000,-0.1617431640625,164.8854961832061
15:15:07.961000,-0.1918792724609375,164.8854961832061
15:15:07.961000,-0.180816650390625,164.8854961832061
15:15:07.962000,-0.1300811767578125,164.8854961832061
15:15:07.963000,-0.0843048095703125,164.8854961832061
15:15:07.963000,-0.070953369140625,164.8854961832061
15:15:07.964000,-0.048065185546875,164.8854961832061
15:15:07.965000,0.01983642578125,164.8854961832061
15:15:07.966000,0.1041412353515625,164.8854961832061
15:15:07.967000,0.15411376953125,164.8854961832061
15:15:07.968000,0.1415252685546875,164.8854961832061
15:15:07.968000,0.074005126953125,164.8854961832061
15:15:07.969000,0.0072479248046875,164.8854961832061
15:15:07.970000,-0.0030517578125,164.8854961832061
15:15:08.088000,0.0392913818359375,164.8854961832061
15:15:08.091000,0.0896453857421875,164.8854961832061
15:15:08.092000,0.1251220703125,164.8854961832061
15:15:08.093000,0.139617919921875,164.8854961832061
15:15:08.094000,0.1354217529296875,164.8854961832061
15:15:08.094000,0.1194000244140625,164.8854961832061
15:15:08.095000,0.1071929931640625,164.8854961832061
15:15:08.096000,0.115966796875,164.8854961832061
15:15:08.097000,0.12969970703125,164.8854961832061
15:15:08.098000,0.1316070556640625,164.8854961832061
15:15:08.098000,0.1346588134765625,164.8854961832061
15:15:08.099000,0.1377105712890625,164.8854961832061
15:15:08.100000,0.0965118408203125,164.8854961832061
15:15:08.101000,-0.0019073486328125,164.8854961832061
15:15:08.102000,-0.0682830810546875,164.8854961832061
15:15:08.103000,-0.043487548828125,164.8854961832061
15:15:08.214000,0.0019073486328125,164.8854961832061
15:15:08.215000,-0.00457763671875,164.8854961832061
15:15:08.216000,-0.03662109375,164.8854961832061
15:15:08.217000,-0.0614166259765625,164.8854961832061
15:15:08.218000,-0.104522705078125,164.8854961832061
15:15:08.219000,-0.16021728515625,164.8854961832061
15:15:08.220000,-0.1674652099609375,164.8854961832061
15:15:08.221000,-0.1102447509765625,164.8854961832061
15:15:08.222000,-0.037384033203125,164.8854961832061
15:15:08.223000,0.00152587890625,164.8854961832061
15:15:08.224000,0.02288818359375,164.8854961832061
15:15:08.225000,0.0629425048828125,164.8854961832061
15:15:08.226000,0.0972747802734375,164.8854961832061
15:15:08.227000,0.1117706298828125,164.8854961832061
15:15:08.228000,0.09307861328125,164.8854961832061
15:15:08.228000,0.022125244140625,164.8854961832061
15:15:08.334000,-0.084686279296875,164.8854961832061
15:15:08.336000,-0.1865386962890625,164.8854961832061
15:15:08.337000,-0.141143798828125,164.8854961832061
15:15:08.339000,0.167083740234375,164.8854961832061
15:15:08.340000,0.6092071533203125,164.8854961832061
15:15:08.341000,0.865936279296875,164.8854961832061
15:15:08.342000,0.6961822509765625,164.8854961832061
15:15:08.343000,0.228118896484375,164.8854961832061
15:15:08.344000,-0.17852783203125,164.8854961832061
15:15:08.345000,-0.3299713134765625,164.8854961832061
15:15:08.346000,-0.3116607666015625,164.8854961832061
15:15:08.347000,-0.2712249755859375,164.8854961832061
15:15:08.348000,-0.23345947265625,164.8854961832061
15:15:08.349000,-0.2002716064453125,164.8854961832061
15:15:08.350000,-0.1796722412109375,164.8854961832061
15:15:08.350000,-0.1491546630859375,164.8854961832061
15:15:08.460000,-0.115966796875,163.80182002022246
15:15:08.461000,-0.1163482666015625,163.80182002022246
15:15:08.462000,-0.167083740234375,163.80182002022246
15:15:08.463000,-0.228118896484375,163.80182002022246
15:15:08.464000,-0.2208709716796875,163.80182002022246
15:15:08.465000,-0.1712799072265625,163.80182002022246
15:15:08.466000,-0.1659393310546875,163.80182002022246
15:15:08.467000,-0.214385986328125,163.80182002022246
15:15:08.468000,-0.2368927001953125,163.80182002022246
15:15:08.469000,-0.177001953125,163.80182002022246
15:15:08.470000,-0.0843048095703125,163.80182002022246
15:15:08.471000,-0.046539306640625,163.80182002022246
15:15:08.471000,-0.0568389892578125,163.80182002022246
15:15:08.472000,-0.0545501708984375,163.80182002022246
15:15:08.473000,-0.01220703125,163.80182002022246
15:15:08.474000,0.028228759765625,163.80182002022246
15:15:08.588000,0.0194549560546875,164.8854961832061
15:15:08.589000,-0.0186920166015625,164.8854961832061
15:15:08.590000,-0.0225067138671875,164.8854961832061
15:15:08.591000,0.042724609375,164.8854961832061
15:15:08.591000,0.1312255859375,164.8854961832061
15:15:08.592000,0.17242431640625,164.8854961832061
15:15:08.593000,0.15106201171875,164.8854961832061
15:15:08.593000,0.1171112060546875,164.8854961832061
15:15:08.594000,0.0823974609375,164.8854961832061
15:15:08.595000,0.02288818359375,164.8854961832061
15:15:08.596000,-0.0545501708984375,164.8854961832061
15:15:08.597000,-0.1239776611328125,164.8854961832061
15:15:08.598000,-0.17547607421875,164.8854961832061
15:15:08.599000,-0.189971923828125,164.8854961832061
15:15:08.600000,-0.1552581787109375,164.8854961832061
15:15:08.601000,-0.0885009765625,164.8854961832061
15:15:08.709000,-0.0209808349609375,164.8854961832061
15:15:08.710000,0.0186920166015625,164.8854961832061
15:15:08.712000,0.048828125,164.8854961832061
15:15:08.713000,0.0843048095703125,164.8854961832061
15:15:08.714000,0.0926971435546875,164.8854961832061
15:15:08.715000,0.04119873046875,164.8854961832061
15:15:08.716000,-0.04119873046875,164.8854961832061
15:15:08.717000,-0.0972747802734375,164.8854961832061
15:15:08.718000,-0.1186370849609375,164.8854961832061
15:15:08.718000,-0.1316070556640625,164.8854961832061
15:15:08.719000,-0.1468658447265625,164.8854961832061
15:15:08.720000,-0.152587890625,164.8854961832061
15:15:08.721000,-0.1293182373046875,164.8854961832061
15:15:08.722000,-0.1140594482421875,164.8854961832061
15:15:08.722000,-0.15106201171875,164.8854961832061
15:15:08.723000,-0.2208709716796875,164.8854961832061
15:15:08.829000,-0.2544403076171875,164.8854961832061
15:15:08.830000,-0.222015380859375,164.8854961832061
15:15:08.831000,-0.1811981201171875,164.8854961832061
15:15:08.833000,-0.189208984375,164.8854961832061
15:15:08.834000,-0.2269744873046875,164.8854961832061
15:15:08.835000,-0.2368927001953125,164.8854961832061
15:15:08.836000,-0.20294189453125,164.8854961832061
15:15:08.837000,-0.1697540283203125,164.8854961832061
15:15:08.838000,-0.1758575439453125,164.8854961832061
15:15:08.839000,-0.2105712890625,164.8854961832061
15:15:08.840000,-0.2166748046875,164.8854961832061
15:15:08.842000,-0.16632080078125,164.8854961832061
15:15:08.843000,-0.092315673828125,164.8854961832061
15:15:08.845000,-0.029754638671875,164.8854961832061
15:15:08.846000,0.005340576171875,164.8854961832061
15:15:08.847000,0.011444091796875,164.8854961832061
15:15:08.978000,-0.006866455078125,164.8854961832061
15:15:08.979000,-0.0476837158203125,164.8854961832061
15:15:08.981000,-0.0606536865234375,164.8854961832061
15:15:08.982000,-0.0476837158203125,164.8854961832061
15:15:08.983000,0.03204345703125,164.8854961832061
15:15:08.984000,0.2986907958984375,164.8854961832061
15:15:08.985000,0.6938934326171875,164.8854961832061
15:15:08.986000,0.9181976318359375,164.8854961832061
15:15:08.987000,0.7328033447265625,164.8854961832061
15:15:08.988000,0.2628326416015625,164.8854961832061
15:15:08.990000,-0.1415252685546875,164.8854961832061
15:15:08.991000,-0.2933502197265625,164.8854961832061
15:15:08.992000,-0.2803802490234375,164.8854961832061
15:15:08.993000,-0.2658843994140625,164.8854961832061
15:15:08.995000,-0.2765655517578125,164.8854961832061
15:15:08.996000,-0.2803802490234375,164.8854961832061
15:15:09.087000,-0.292205810546875,164.8854961832061
15:15:09.099000,-0.2864837646484375,164.8854961832061
15:15:09.101000,-0.2429962158203125,164.8854961832061
15:15:09.102000,-0.1678466796875,164.8854961832061
15:15:09.104000,-0.0843048095703125,164.8854961832061
15:15:09.105000,-0.0152587890625,164.8854961832061
15:15:09.106000,0.0030517578125,164.8854961832061
15:15:09.107000,-0.029754638671875,164.8854961832061
15:15:09.108000,-0.0614166259765625,164.8854961832061
15:15:09.110000,-0.0659942626953125,164.8854961832061
15:15:09.111000,-0.075531005859375,164.8854961832061
15:15:09.132000,-0.110626220703125,164.8854961832061
15:15:09.133000,-0.142669677734375,164.8854961832061
15:15:09.134000,-0.1560211181640625,164.8854961832061
15:15:09.135000,-0.1617431640625,164.8854961832061
15:15:09.136000,-0.15869140625,164.8854961832061
15:15:09.263000,-0.1422882080078125,164.8854961832061
15:15:09.264000,-0.115966796875,164.8854961832061
15:15:09.285000,-0.1132965087890625,164.8854961832061
15:15:09.287000,-0.1659393310546875,164.8854961832061
15:15:09.288000,-0.262451171875,164.8854961832061
15:15:09.290000,-0.3543853759765625,164.8854961832061
15:15:09.291000,-0.380706787109375,164.8854961832061
15:15:09.292000,-0.30059814453125,164.8854961832061
15:15:09.293000,-0.15869140625,164.8854961832061
15:15:09.294000,-0.0682830810546875,164.8854961832061
15:15:09.295000,-0.0690460205078125,164.8854961832061
15:15:09.296000,-0.0919342041015625,164.8854961832061
15:15:09.317000,-0.0885009765625,164.8854961832061
15:15:09.319000,-0.0946044921875,164.8854961832061
15:15:09.320000,-0.133514404296875,164.8854961832061
15:15:09.321000,-0.16937255859375,164.8854961832061
15:15:09.387000,-0.1583099365234375,164.8854961832061
15:15:09.407000,-0.1140594482421875,164.8854961832061
15:15:09.408000,-0.08544921875,164.8854961832061
15:15:09.409000,-0.0667572021484375,164.8854961832061
15:15:09.411000,-0.029754638671875,164.8854961832061
15:15:09.412000,0.005340576171875,164.8854961832061
15:15:09.413000,0.0217437744140625,164.8854961832061
15:15:09.414000,0.03509521484375,164.8854961832061
15:15:09.416000,0.0431060791015625,164.8854961832061
15:15:09.417000,0.02288818359375,164.8854961832061
15:15:09.418000,-0.005340576171875,164.8854961832061
15:15:09.419000,-0.01678466796875,164.8854961832061
15:15:09.420000,-0.028228759765625,164.8854961832061
15:15:09.421000,-0.064849853515625,164.8854961832061
15:15:09.442000,-0.1132965087890625,164.8854961832061
15:15:09.444000,-0.1422882080078125,164.8854961832061
15:15:09.511000,-0.144195556640625,164.8854961832061
15:15:09.524000,-0.125885009765625,164.8854961832061
15:15:09.526000,-0.102996826171875,164.8854961832061
15:15:09.527000,-0.11138916015625,164.8854961832061
15:15:09.529000,-0.1453399658203125,164.8854961832061
15:15:09.530000,-0.144195556640625,164.8854961832061
15:15:09.531000,-0.0667572021484375,164.8854961832061
15:15:09.532000,0.03509521484375,164.8854961832061
15:15:09.533000,0.051116943359375,164.8854961832061
15:15:09.535000,-0.0217437744140625,164.8854961832061
15:15:09.536000,-0.06256103515625,164.8854961832061
15:15:09.558000,-0.0392913818359375,164.8854961832061
15:15:09.559000,-0.025177001953125,164.8854961832061
15:15:09.580000,-0.034332275390625,164.8854961832061
15:15:09.582000,-0.0095367431640625,164.8854961832061
15:15:09.583000,0.018310546875,164.8854961832061
15:15:09.588000,-0.023651123046875,164.8854961832061
15:15:09.589000,-0.1194000244140625,164.8854961832061
15:15:09.590000,-0.1926422119140625,164.8854961832061
15:15:09.591000,-0.15716552734375,164.8854961832061
15:15:09.592000,-0.067901611328125,164.8854961832061
15:15:09.593000,0.0213623046875,164.8854961832061
15:15:09.593000,0.2777099609375,164.8854961832061
15:15:09.594000,0.73089599609375,164.8854961832061
15:15:09.595000,1.0650634765625,164.8854961832061
15:15:09.596000,0.9357452392578125,164.8854961832061
15:15:09.596000,0.3856658935546875,164.8854961832061
15:15:09.597000,-0.154876708984375,164.8854961832061
15:15:09.598000,-0.3536224365234375,164.8854961832061
15:15:09.599000,-0.2712249755859375,164.8854961832061
15:15:09.600000,-0.17547607421875,164.8854961832061
15:15:09.600000,-0.1605987548828125,164.8854961832061
15:15:09.719000,-0.15869140625,164.8854961832061
15:15:09.720000,-0.1773834228515625,164.8854961832061
15:15:09.721000,-0.2193450927734375,164.8854961832061
15:15:09.722000,-0.2376556396484375,164.8854961832061
15:15:09.723000,-0.19378662109375,164.8854961832061
15:15:09.724000,-0.09918212890625,164.8854961832061
15:15:09.725000,-0.0492095947265625,164.8854961832061
15:15:09.726000,-0.0701904296875,164.8854961832061
15:15:09.727000,-0.08392333984375,164.8854961832061
15:15:09.728000,-0.028228759765625,164.8854961832061
15:15:09.729000,0.0392913818359375,164.8854961832061
15:15:09.730000,0.0537872314453125,164.8854961832061
15:15:09.731000,0.046539306640625,164.8854961832061
15:15:09.732000,0.069427490234375,164.8854961832061
15:15:09.733000,0.0850677490234375,164.8854961832061
15:15:09.734000,0.052642822265625,164.8854961832061
15:15:09.833000,0.0232696533203125,164.8854961832061
15:15:09.834000,0.064849853515625,164.8854961832061
15:15:09.835000,0.1285552978515625,164.8854961832061
15:15:09.836000,0.128936767578125,164.8854961832061
15:15:09.837000,0.070953369140625,164.8854961832061
15:15:09.838000,0.03662109375,164.8854961832061
15:15:09.838000,0.0614166259765625,164.8854961832061
15:15:09.839000,0.091552734375,164.8854961832061
15:15:09.840000,0.06561279296875,164.8854961832061
15:15:09.840000,-0.0148773193359375,164.8854961832061
15:15:09.841000,-0.083160400390625,164.8854961832061
15:15:09.842000,-0.096893310546875,164.8854961832061
15:15:09.843000,-0.079345703125,164.8854961832061
15:15:09.843000,-0.078582763671875,164.8854961832061
15:15:09.844000,-0.09765625,164.8854961832061
15:15:09.845000,-0.0980377197265625,164.8854961832061
15:15:09.954000,-0.06561279296875,164.8854961832061
15:15:09.955000,-0.051116943359375,164.8854961832061
15:15:09.956000,-0.07171630859375,164.8854961832061
15:15:09.958000,-0.0911712646484375,164.8854961832061
15:15:09.959000,-0.1041412353515625,164.8854961832061
15:15:09.960000,-0.1354217529296875,164.8854961832061
15:15:09.961000,-0.183868408203125,164.8854961832061
15:15:09.962000,-0.20904541015625,164.8854961832061
15:15:09.963000,-0.1728057861328125,164.8854961832061
15:15:09.964000,-0.1102447509765625,164.8854961832061
15:15:09.965000,-0.0675201416015625,164.8854961832061
15:15:09.966000,-0.0377655029296875,164.8854961832061
15:15:09.967000,-0.01220703125,164.8854961832061
15:15:09.968000,-0.0102996826171875,164.8854961832061
15:15:09.969000,-0.032806396484375,164.8854961832061
15:15:09.969000,-0.072479248046875,164.8854961832061
15:15:10.103000,-0.128173828125,164.8854961832061
15:15:10.104000,-0.1678466796875,164.8854961832061
15:15:10.105000,-0.1613616943359375,164.8854961832061
15:15:10.105000,-0.106048583984375,164.8854961832061
15:15:10.106000,-0.0057220458984375,164.8854961832061
15:15:10.107000,0.0911712646484375,164.8854961832061
15:15:10.108000,0.12664794921875,164.8854961832061
15:15:10.109000,0.0934600830078125,164.8854961832061
15:15:10.110000,0.0087738037109375,164.8854961832061
15:15:10.110000,-0.09765625,164.8854961832061
15:15:10.111000,-0.1689910888671875,164.8854961832061
15:15:10.112000,-0.177764892578125,164.8854961832061
15:15:10.113000,-0.1453399658203125,164.8854961832061
15:15:10.114000,-0.10528564453125,164.8854961832061
15:15:10.114000,-0.0789642333984375,164.8854961832061
15:15:10.115000,-0.079345703125,164.8854961832061
15:15:10.208000,-0.1010894775390625,164.8854961832061
15:15:10.210000,-0.10223388671875,164.8854961832061
15:15:10.212000,-0.0766754150390625,164.8854961832061
15:15:10.213000,-0.04425048828125,164.8854961832061
15:15:10.215000,-0.0324249267578125,164.8854961832061
15:15:10.216000,-0.0568389892578125,164.8854961832061
15:15:10.217000,-0.0720977783203125,164.8854961832061
15:15:10.218000,-0.070953369140625,164.8854961832061
15:15:10.219000,0.0080108642578125,164.8854961832061
15:15:10.220000,0.334930419921875,164.8854961832061
15:15:10.221000,0.838470458984375,164.8854961832061
15:15:10.222000,1.1199951171875,164.8854961832061
15:15:10.223000,0.87127685546875,164.8854961832061
15:15:10.224000,0.279998779296875,164.8854961832061
15:15:10.225000,-0.186920166015625,164.8854961832061
15:15:10.226000,-0.3131866455078125,164.8854961832061
15:15:10.328000,-0.2471923828125,164.8854961832061
15:15:10.329000,-0.1979827880859375,164.8854961832061
15:15:10.330000,-0.1766204833984375,164.8854961832061
15:15:10.331000,-0.168609619140625,164.8854961832061
15:15:10.332000,-0.2105712890625,164.8854961832061
15:15:10.333000,-0.25482177734375,164.8854961832061
15:15:10.334000,-0.2628326416015625,164.8854961832061
15:15:10.336000,-0.250244140625,164.8854961832061
